20.000   55.8000
20.015   55.8000
20.030   63.2000
20.045   62.8000
20.060   60.4000
20.075   55.6000
20.090   57.8000
20.105   54.6000
20.120   59.2000
20.135   55.6000
20.150   58.8000
20.165   59.2000
20.180   52.6000
20.195   56.0000
20.210   63.2000
20.225   60.0000
20.240   53.0000
20.255   56.2000
20.270   57.2000
20.285   60.6000
20.300   59.6000
20.315   55.6000
20.330   55.2000
20.345   52.6000
20.360   55.2000
20.375   55.2000
20.390   55.2000
20.405   56.4000
20.420   57.2000
20.435   53.0000
20.450   54.4000
20.465   56.4000
20.480   51.4000
20.495   57.4000
20.510   56.8000
20.525   54.0000
20.540   56.6000
20.555   57.0000
20.570   59.8000
20.585   57.4000
20.600   56.2000
20.615   57.8000
20.630   56.2000
20.645   58.2000
20.660   54.0000
20.675   51.6000
20.690   58.6000
20.705   61.6000
20.720   56.2000
20.735   52.2000
20.750   58.2000
20.765   52.8000
20.780   56.2000
20.795   57.4000
20.810   50.0000
20.825   58.4000
20.840   55.8000
20.855   55.4000
20.870   54.8000
20.885   53.0000
20.900   54.2000
20.915   55.6000
20.930   60.0000
20.945   60.2000
20.960   54.8000
20.975   55.8000
20.990   54.6000
21.005   55.0000
21.020   54.8000
21.035   53.8000
21.050   56.4000
21.065   52.8000
21.080   53.8000
21.095   53.4000
21.110   55.8000
21.125   50.8000
21.140   50.4000
21.155   52.0000
21.170   53.8000
21.185   48.6000
21.200   53.6000
21.215   51.0000
21.230   54.0000
21.245   58.6000
21.260   50.4000
21.275   53.0000
21.290   56.2000
21.305   51.2000
21.320   48.2000
21.335   57.8000
21.350   59.0000
21.365   51.6000
21.380   53.0000
21.395   53.8000
21.410   57.8000
21.425   51.0000
21.440   54.8000
21.455   53.2000
21.470   54.0000
21.485   54.6000
21.500   53.0000
21.515   54.2000
21.530   52.6000
21.545   54.0000
21.560   53.4000
21.575   46.4000
21.590   52.2000
21.605   53.4000
21.620   54.4000
21.635   52.6000
21.650   53.6000
21.665   57.4000
21.680   50.8000
21.695   54.4000
21.710   55.8000
21.725   47.4000
21.740   51.2000
21.755   52.6000
21.770   52.0000
21.785   57.2000
21.800   52.0000
21.815   50.0000
21.830   49.0000
21.845   56.2000
21.860   49.2000
21.875   53.4000
21.890   52.6000
21.905   50.8000
21.920   47.2000
21.935   49.8000
21.950   49.0000
21.965   51.0000
21.980   58.0000
21.995   48.8000
22.010   53.4000
22.025   53.2000
22.040   54.0000
22.055   48.6000
22.070   49.8000
22.085   52.8000
22.100   52.4000
22.115   49.4000
22.130   53.8000
22.145   50.0000
22.160   48.6000
22.175   44.2000
22.190   47.2000
22.205   48.8000
22.220   50.6000
22.235   47.2000
22.250   49.8000
22.265   48.2000
22.280   49.4000
22.295   54.6000
22.310   51.2000
22.325   54.2000
22.340   49.2000
22.355   53.4000
22.370   55.8000
22.385   49.6000
22.400   53.8000
22.415   51.2000
22.430   55.8000
22.445   49.2000
22.460   45.4000
22.475   47.8000
22.490   45.2000
22.505   49.8000
22.520   49.2000
22.535   52.4000
22.550   53.2000
22.565   49.0000
22.580   47.4000
22.595   47.4000
22.610   46.0000
22.625   46.4000
22.640   44.8000
22.655   47.4000
22.670   48.2000
22.685   44.6000
22.700   50.6000
22.715   55.2000
22.730   50.2000
22.745   48.0000
22.760   46.4000
22.775   46.2000
22.790   51.8000
22.805   50.6000
22.820   51.8000
22.835   44.8000
22.850   42.8000
22.865   44.8000
22.880   47.0000
22.895   48.2000
22.910   52.4000
22.925   52.0000
22.940   46.6000
22.955   47.6000
22.970   49.6000
22.985   47.4000
23.000   45.8000
23.015   47.4000
23.030   46.2000
23.045   47.2000
23.060   48.8000
23.075   42.6000
23.090   46.6000
23.105   50.4000
23.120   49.4000
23.135   44.8000
23.150   45.0000
23.165   43.4000
23.180   44.8000
23.195   45.0000
23.210   44.2000
23.225   47.4000
23.240   45.6000
23.255   42.8000
23.270   44.8000
23.285   45.8000
23.300   48.4000
23.315   49.8000
23.330   50.0000
23.345   47.2000
23.360   40.6000
23.375   41.6000
23.390   43.6000
23.405   45.4000
23.420   46.0000
23.435   46.8000
23.450   42.6000
23.465   42.4000
23.480   40.8000
23.495   39.0000
23.510   46.8000
23.525   45.6000
23.540   49.4000
23.555   48.0000
23.570   49.4000
23.585   49.0000
23.600   43.4000
23.615   43.6000
23.630   45.0000
23.645   41.2000
23.660   43.2000
23.675   45.8000
23.690   49.6000
23.705   44.6000
23.720   45.4000
23.735   45.0000
23.750   45.8000
23.765   42.8000
23.780   41.0000
23.795   41.6000
23.810   41.2000
23.825   41.2000
23.840   42.2000
23.855   48.6000
23.870   45.6000
23.885   43.8000
23.900   45.6000
23.915   42.0000
23.930   44.4000
23.945   45.2000
23.960   47.0000
23.975   47.4000
23.990   43.6000
24.005   42.4000
24.020   39.8000
24.035   42.0000
24.050   45.0000
24.065   43.4000
24.080   43.8000
24.095   44.8000
24.110   44.6000
24.125   44.2000
24.140   41.8000
24.155   44.6000
24.170   43.6000
24.185   43.8000
24.200   39.4000
24.215   42.8000
24.230   42.6000
24.245   41.2000
24.260   40.8000
24.275   41.0000
24.290   40.8000
24.305   42.6000
24.320   45.2000
24.335   43.8000
24.350   38.2000
24.365   42.4000
24.380   41.2000
24.395   41.2000
24.410   39.2000
24.425   40.0000
24.440   38.2000
24.455   40.4000
24.470   45.2000
24.485   41.8000
24.500   40.6000
24.515   40.6000
24.530   45.2000
24.545   45.0000
24.560   42.2000
24.575   38.6000
24.590   39.8000
24.605   42.8000
24.620   43.2000
24.635   41.0000
24.650   41.0000
24.665   41.2000
24.680   41.6000
24.695   38.2000
24.710   37.8000
24.725   38.4000
24.740   42.4000
24.755   40.0000
24.770   41.8000
24.785   39.6000
24.800   43.0000
24.815   41.4000
24.830   41.8000
24.845   38.4000
24.860   40.4000
24.875   42.8000
24.890   41.2000
24.905   37.8000
24.920   39.6000
24.935   34.2000
24.950   40.8000
24.965   38.8000
24.980   40.0000
24.995   42.2000
25.010   37.4000
25.025   39.2000
25.040   40.4000
25.055   41.2000
25.070   39.2000
25.085   40.0000
25.100   43.6000
25.115   39.6000
25.130   40.8000
25.145   39.2000
25.160   41.2000
25.175   41.2000
25.190   37.2000
25.205   43.6000
25.220   41.4000
25.235   41.6000
25.250   43.0000
25.265   40.8000
25.280   38.0000
25.295   34.8000
25.310   34.4000
25.325   39.6000
25.340   38.0000
25.355   34.6000
25.370   42.4000
25.385   40.4000
25.400   38.4000
25.415   36.8000
25.430   41.6000
25.445   39.2000
25.460   37.6000
25.475   38.0000
25.490   36.2000
25.505   41.2000
25.520   42.0000
25.535   39.0000
25.550   37.6000
25.565   33.6000
25.580   34.4000
25.595   37.4000
25.610   33.6000
25.625   38.0000
25.640   38.2000
25.655   38.8000
25.670   35.4000
25.685   38.2000
25.700   40.4000
25.715   36.2000
25.730   37.8000
25.745   38.6000
25.760   36.8000
25.775   35.2000
25.790   35.0000
25.805   36.4000
25.820   37.4000
25.835   37.2000
25.850   34.4000
25.865   37.2000
25.880   35.4000
25.895   36.8000
25.910   35.2000
25.925   39.2000
25.940   38.0000
25.955   34.6000
25.970   38.4000
25.985   37.2000
26.000   36.4000
26.015   39.0000
26.030   38.0000
26.045   35.4000
26.060   36.4000
26.075   35.0000
26.090   36.8000
26.105   35.0000
26.120   32.4000
26.135   35.4000
26.150   39.6000
26.165   36.8000
26.180   34.4000
26.195   35.6000
26.210   41.2000
26.225   37.0000
26.240   36.6000
26.255   38.0000
26.270   41.4000
26.285   36.2000
26.300   33.0000
26.315   37.4000
26.330   36.0000
26.345   40.0000
26.360   39.6000
26.375   34.8000
26.390   31.6000
26.405   34.4000
26.420   33.2000
26.435   33.8000
26.450   33.2000
26.465   28.6000
26.480   31.8000
26.495   33.8000
26.510   32.6000
26.525   36.0000
26.540   34.8000
26.555   31.4000
26.570   32.2000
26.585   36.0000
26.600   35.0000
26.615   32.2000
26.630   35.0000
26.645   32.0000
26.660   34.2000
26.675   35.2000
26.690   32.4000
26.705   33.4000
26.720   37.2000
26.735   37.4000
26.750   36.6000
26.765   33.6000
26.780   32.4000
26.795   38.6000
26.810   31.8000
26.825   33.8000
26.840   35.8000
26.855   36.6000
26.870   33.8000
26.885   36.0000
26.900   31.2000
26.915   32.0000
26.930   33.4000
26.945   37.4000
26.960   30.0000
26.975   32.4000
26.990   34.4000
27.005   32.8000
27.020   32.0000
27.035   30.6000
27.050   31.8000
27.065   36.4000
27.080   32.6000
27.095   29.0000
27.110   28.6000
27.125   31.4000
27.140   34.4000
27.155   32.0000
27.170   30.6000
27.185   32.4000
27.200   31.4000
27.215   29.6000
27.230   31.4000
27.245   32.6000
27.260   29.4000
27.275   30.6000
27.290   33.2000
27.305   32.4000
27.320   32.0000
27.335   28.8000
27.350   33.4000
27.365   32.4000
27.380   34.2000
27.395   33.4000
27.410   34.0000
27.425   30.8000
27.440   28.8000
27.455   30.2000
27.470   29.4000
27.485   31.6000
27.500   31.0000
27.515   31.6000
27.530   33.4000
27.545   31.4000
27.560   34.8000
27.575   34.6000
27.590   32.6000
27.605   31.8000
27.620   30.4000
27.635   29.4000
27.650   30.4000
27.665   35.6000
27.680   35.2000
27.695   37.2000
27.710   33.8000
27.725   32.2000
27.740   32.8000
27.755   31.4000
27.770   31.0000
27.785   35.4000
27.800   33.4000
27.815   29.4000
27.830   32.2000
27.845   30.6000
27.860   32.0000
27.875   31.4000
27.890   31.8000
27.905   28.2000
27.920   33.8000
27.935   29.2000
27.950   31.8000
27.965   32.4000
27.980   33.8000
27.995   26.0000
28.010   28.2000
28.025   29.6000
28.040   29.8000
28.055   31.4000
28.070   32.2000
28.085   29.8000
28.100   32.0000
28.115   31.4000
28.130   33.2000
28.145   26.8000
28.160   28.6000
28.175   27.6000
28.190   29.2000
28.205   31.6000
28.220   31.6000
28.235   29.6000
28.250   30.4000
28.265   28.4000
28.280   31.6000
28.295   34.6000
28.310   31.4000
28.325   26.6000
28.340   26.6000
28.355   32.0000
28.370   29.6000
28.385   30.2000
28.400   36.8000
28.415   30.2000
28.430   28.6000
28.445   27.6000
28.460   30.4000
28.475   29.6000
28.490   28.6000
28.505   32.0000
28.520   33.4000
28.535   29.0000
28.550   29.2000
28.565   27.6000
28.580   27.4000
28.595   27.8000
28.610   29.6000
28.625   30.4000
28.640   27.8000
28.655   33.4000
28.670   28.0000
28.685   31.0000
28.700   30.8000
28.715   27.4000
28.730   30.6000
28.745   30.4000
28.760   26.2000
28.775   29.6000
28.790   28.8000
28.805   31.2000
28.820   29.6000
28.835   29.8000
28.850   27.0000
28.865   26.6000
28.880   27.8000
28.895   28.0000
28.910   26.6000
28.925   24.2000
28.940   28.6000
28.955   27.6000
28.970   28.0000
28.985   30.8000
29.000   28.6000
29.015   28.6000
29.030   30.4000
29.045   30.2000
29.060   24.4000
29.075   26.8000
29.090   30.0000
29.105   30.2000
29.120   30.8000
29.135   30.8000
29.150   29.4000
29.165   29.4000
29.180   30.2000
29.195   29.2000
29.210   31.2000
29.225   30.8000
29.240   28.4000
29.255   28.8000
29.270   30.0000
29.285   30.8000
29.300   33.4000
29.315   28.4000
29.330   29.2000
29.345   27.4000
29.360   28.4000
29.375   29.8000
29.390   30.4000
29.405   26.8000
29.420   27.4000
29.435   30.2000
29.450   25.6000
29.465   26.0000
29.480   26.2000
29.495   26.0000
29.510   29.8000
29.525   27.0000
29.540   27.6000
29.555   27.8000
29.570   27.2000
29.585   28.6000
29.600   29.6000
29.615   25.8000
29.630   27.0000
29.645   23.4000
29.660   26.0000
29.675   29.0000
29.690   23.6000
29.705   22.6000
29.720   26.6000
29.735   24.2000
29.750   24.0000
29.765   27.0000
29.780   25.0000
29.795   26.8000
29.810   28.8000
29.825   29.4000
29.840   31.2000
29.855   28.2000
29.870   25.8000
29.885   24.6000
29.900   26.6000
29.915   29.0000
29.930   29.6000
29.945   26.6000
29.960   27.6000
29.975   26.2000
29.990   26.8000
30.005   27.0000
30.020   26.8000
30.035   24.6000
30.050   25.4000
30.065   25.0000
30.080   26.8000
30.095   25.2000
30.110   25.8000
30.125   29.6000
30.140   27.6000
30.155   24.4000
30.170   23.2000
30.185   26.2000
30.200   28.6000
30.215   30.2000
30.230   29.2000
30.245   27.4000
30.260   30.2000
30.275   23.4000
30.290   27.2000
30.305   28.0000
30.320   27.2000
30.335   28.8000
30.350   26.8000
30.365   23.6000
30.380   22.4000
30.395   25.0000
30.410   27.2000
30.425   26.6000
30.440   27.6000
30.455   30.0000
30.470   27.0000
30.485   22.6000
30.500   25.0000
30.515   24.8000
30.530   27.2000
30.545   26.8000
30.560   27.2000
30.575   26.2000
30.590   26.6000
30.605   26.0000
30.620   26.6000
30.635   25.8000
30.650   27.6000
30.665   24.8000
30.680   28.4000
30.695   29.4000
30.710   23.8000
30.725   23.0000
30.740   24.8000
30.755   28.6000
30.770   30.8000
30.785   26.8000
30.800   26.2000
30.815   21.2000
30.830   26.2000
30.845   25.2000
30.860   25.8000
30.875   25.4000
30.890   29.2000
30.905   26.4000
30.920   25.4000
30.935   23.4000
30.950   24.8000
30.965   27.2000
30.980   25.6000
30.995   25.8000
31.010   25.0000
31.025   27.6000
31.040   21.2000
31.055   23.0000
31.070   24.0000
31.085   25.4000
31.100   25.0000
31.115   23.6000
31.130   24.0000
31.145   27.6000
31.160   23.8000
31.175   26.0000
31.190   23.4000
31.205   24.6000
31.220   26.2000
31.235   23.6000
31.250   21.2000
31.265   20.8000
31.280   23.8000
31.295   23.6000
31.310   24.4000
31.325   24.4000
31.340   25.2000
31.355   22.2000
31.370   26.6000
31.385   25.8000
31.400   22.2000
31.415   20.2000
31.430   24.6000
31.445   26.2000
31.460   24.4000
31.475   25.2000
31.490   25.8000
31.505   24.2000
31.520   23.2000
31.535   24.0000
31.550   24.0000
31.565   24.0000
31.580   25.4000
31.595   23.8000
31.610   23.4000
31.625   25.8000
31.640   22.0000
31.655   22.0000
31.670   24.0000
31.685   22.2000
31.700   23.0000
31.715   24.8000
31.730   20.2000
31.745   22.8000
31.760   25.6000
31.775   23.0000
31.790   22.2000
31.805   22.2000
31.820   21.0000
31.835   24.4000
31.850   19.6000
31.865   22.4000
31.880   25.0000
31.895   22.6000
31.910   22.2000
31.925   21.4000
31.940   21.4000
31.955   20.8000
31.970   20.2000
31.985   24.2000
32.000   26.0000
32.015   23.2000
32.030   21.0000
32.045   18.8000
32.060   18.6000
32.075   24.6000
32.090   22.4000
32.105   23.6000
32.120   25.8000
32.135   21.8000
32.150   20.0000
32.165   21.6000
32.180   22.6000
32.195   25.8000
32.210   24.2000
32.225   24.8000
32.240   26.6000
32.255   28.2000
32.270   25.0000
32.285   27.6000
32.300   23.0000
32.315   21.2000
32.330   26.6000
32.345   23.0000
32.360   20.8000
32.375   22.2000
32.390   24.0000
32.405   20.0000
32.420   18.8000
32.435   19.6000
32.450   23.4000
32.465   21.6000
32.480   22.4000
32.495   23.4000
32.510   20.8000
32.525   23.4000
32.540   21.2000
32.555   20.0000
32.570   23.8000
32.585   25.4000
32.600   21.8000
32.615   21.6000
32.630   21.6000
32.645   20.2000
32.660   23.6000
32.675   22.8000
32.690   22.4000
32.705   23.2000
32.720   24.0000
32.735   21.2000
32.750   20.4000
32.765   18.2000
32.780   21.2000
32.795   19.0000
32.810   23.6000
32.825   25.4000
32.840   22.6000
32.855   20.6000
32.870   21.0000
32.885   23.2000
32.900   24.8000
32.915   19.8000
32.930   21.4000
32.945   23.0000
32.960   23.2000
32.975   23.0000
32.990   23.4000
33.005   21.8000
33.020   23.6000
33.035   24.6000
33.050   20.6000
33.065   21.8000
33.080   22.6000
33.095   25.8000
33.110   21.2000
33.125   21.6000
33.140   22.4000
33.155   22.2000
33.170   25.6000
33.185   25.4000
33.200   20.2000
33.215   20.6000
33.230   24.4000
33.245   21.2000
33.260   23.4000
33.275   22.2000
33.290   24.8000
33.305   25.0000
33.320   23.0000
33.335   22.2000
33.350   22.2000
33.365   22.2000
33.380   21.8000
33.395   23.6000
33.410   23.4000
33.425   20.4000
33.440   22.8000
33.455   19.2000
33.470   19.2000
33.485   23.6000
33.500   21.4000
33.515   20.4000
33.530   21.6000
33.545   22.6000
33.560   22.6000
33.575   25.4000
33.590   22.8000
33.605   21.2000
33.620   23.4000
33.635   23.6000
33.650   21.2000
33.665   23.4000
33.680   22.4000
33.695   21.6000
33.710   21.0000
33.725   23.8000
33.740   22.2000
33.755   22.4000
33.770   23.4000
33.785   18.4000
33.800   21.0000
33.815   22.6000
33.830   19.8000
33.845   18.2000
33.860   17.8000
33.875   20.6000
33.890   18.4000
33.905   22.2000
33.920   23.2000
33.935   22.0000
33.950   20.0000
33.965   21.2000
33.980   21.2000
33.995   22.2000
34.010   21.8000
34.025   22.2000
34.040   24.0000
34.055   24.4000
34.070   20.4000
34.085   19.2000
34.100   22.6000
34.115   22.0000
34.130   21.8000
34.145   19.2000
34.160   21.6000
34.175   22.8000
34.190   22.2000
34.205   21.4000
34.220   23.6000
34.235   21.8000
34.250   20.6000
34.265   22.8000
34.280   21.0000
34.295   20.8000
34.310   19.8000
34.325   19.2000
34.340   22.6000
34.355   20.8000
34.370   22.6000
34.385   25.2000
34.400   23.0000
34.415   24.8000
34.430   22.2000
34.445   21.2000
34.460   20.4000
34.475   20.0000
34.490   21.8000
34.505   24.0000
34.520   21.8000
34.535   19.4000
34.550   21.4000
34.565   21.6000
34.580   22.8000
34.595   23.6000
34.610   20.6000
34.625   20.4000
34.640   22.0000
34.655   23.0000
34.670   20.2000
34.685   22.0000
34.700   22.2000
34.715   23.0000
34.730   18.8000
34.745   20.4000
34.760   20.0000
34.775   20.0000
34.790   21.8000
34.805   19.8000
34.820   17.6000
34.835   20.2000
34.850   19.2000
34.865   23.6000
34.880   20.8000
34.895   22.0000
34.910   21.4000
34.925   24.4000
34.940   22.4000
34.955   19.4000
34.970   20.4000
34.985   22.0000
35.000   20.6000
35.015   22.6000
35.030   23.0000
35.045   21.0000
35.060   21.8000
35.075   21.2000
35.090   20.8000
35.105   21.6000
35.120   23.0000
35.135   22.8000
35.150   24.2000
35.165   23.0000
35.180   20.2000
35.195   20.4000
35.210   20.8000
35.225   22.6000
35.240   23.6000
35.255   23.4000
35.270   23.0000
35.285   20.6000
35.300   21.6000
35.315   21.0000
35.330   22.2000
35.345   22.6000
35.360   24.2000
35.375   21.6000
35.390   22.6000
35.405   23.4000
35.420   20.4000
35.435   21.0000
35.450   17.6000
35.465   22.2000
35.480   24.8000
35.495   25.0000
35.510   22.4000
35.525   19.2000
35.540   22.6000
35.555   21.8000
35.570   23.0000
35.585   22.2000
35.600   20.6000
35.615   20.4000
35.630   21.6000
35.645   21.2000
35.660   20.2000
35.675   23.8000
35.690   23.2000
35.705   22.2000
35.720   22.2000
35.735   22.2000
35.750   19.6000
35.765   24.6000
35.780   29.4000
35.795   26.2000
35.810   25.8000
35.825   26.0000
35.840   23.6000
35.855   23.0000
35.870   24.0000
35.885   24.2000
35.900   26.0000
35.915   25.6000
35.930   23.4000
35.945   23.4000
35.960   23.8000
35.975   24.8000
35.990   25.4000
36.005   24.2000
36.020   25.2000
36.035   25.4000
36.050   22.6000
36.065   23.6000
36.080   25.2000
36.095   24.4000
36.110   24.6000
36.125   25.2000
36.140   22.6000
36.155   22.4000
36.170   23.8000
36.185   25.6000
36.200   24.2000
36.215   26.8000
36.230   24.0000
36.245   24.0000
36.260   22.6000
36.275   24.0000
36.290   21.8000
36.305   24.6000
36.320   21.8000
36.335   23.0000
36.350   23.8000
36.365   22.2000
36.380   23.6000
36.395   20.2000
36.410   20.6000
36.425   23.8000
36.440   22.0000
36.455   23.2000
36.470   22.6000
36.485   22.2000
36.500   25.4000
36.515   28.2000
36.530   25.4000
36.545   22.0000
36.560   25.4000
36.575   25.8000
36.590   23.2000
36.605   26.4000
36.620   25.8000
36.635   24.4000
36.650   24.6000
36.665   24.4000
36.680   24.6000
36.695   26.8000
36.710   23.8000
36.725   25.8000
36.740   25.6000
36.755   24.8000
36.770   26.4000
36.785   28.4000
36.800   25.4000
36.815   24.2000
36.830   26.6000
36.845   27.0000
36.860   26.6000
36.875   22.6000
36.890   22.6000
36.905   25.8000
36.920   26.6000
36.935   28.0000
36.950   26.4000
36.965   24.2000
36.980   26.8000
36.995   27.4000
37.010   28.0000
37.025   28.2000
37.040   31.6000
37.055   26.2000
37.070   27.0000
37.085   28.2000
37.100   27.4000
37.115   30.0000
37.130   28.0000
37.145   30.6000
37.160   27.0000
37.175   30.4000
37.190   30.8000
37.205   29.0000
37.220   29.6000
37.235   28.0000
37.250   27.2000
37.265   31.0000
37.280   33.6000
37.295   33.2000
37.310   29.4000
37.325   34.0000
37.340   29.8000
37.355   35.0000
37.370   38.0000
37.385   37.8000
37.400   38.6000
37.415   40.4000
37.430   41.0000
37.445   38.6000
37.460   42.8000
37.475   40.2000
37.490   47.2000
37.505   41.8000
37.520   46.6000
37.535   48.2000
37.550   50.8000
37.565   52.6000
37.580   52.2000
37.595   58.6000
37.610   63.4000
37.625   63.6000
37.640   70.8000
37.655   72.4000
37.670   73.2000
37.685   78.8000
37.700   87.0000
37.715   89.4000
37.730   90.6000
37.745   95.4000
37.760  105.2000
37.775  117.8000
37.790  132.6000
37.805  141.2000
37.820  163.8000
37.835  179.4000
37.850  197.0000
37.865  227.6000
37.880  242.8000
37.895  269.6000
37.910  303.4000
37.925  347.0000
37.940  398.6000
37.955  445.2000
37.970  506.2000
37.985  531.4000
38.000  563.0000
38.015  582.4000
38.030  563.2000
38.045  540.2000
38.060  475.4000
38.075  432.0000
38.090  378.4000
38.105  331.8000
38.120  292.2000
38.135  246.0000
38.150  218.0000
38.165  200.0000
38.180  178.6000
38.195  158.2000
38.210  140.8000
38.225  135.8000
38.240  120.6000
38.255  111.0000
38.270   99.0000
38.285   93.2000
38.300   94.2000
38.315   83.0000
38.330   78.8000
38.345   73.0000
38.360   71.0000
38.375   70.6000
38.390   67.4000
38.405   61.4000
38.420   58.8000
38.435   60.8000
38.450   54.0000
38.465   48.8000
38.480   54.0000
38.495   48.0000
38.510   47.2000
38.525   49.2000
38.540   48.8000
38.555   45.6000
38.570   44.2000
38.585   44.6000
38.600   42.8000
38.615   40.0000
38.630   41.4000
38.645   38.4000
38.660   41.0000
38.675   36.8000
38.690   35.6000
38.705   35.0000
38.720   36.6000
38.735   37.2000
38.750   37.2000
38.765   31.0000
38.780   33.4000
38.795   33.6000
38.810   32.0000
38.825   36.2000
38.840   31.8000
38.855   30.4000
38.870   37.8000
38.885   33.6000
38.900   31.2000
38.915   31.8000
38.930   30.4000
38.945   30.2000
38.960   29.8000
38.975   28.6000
38.990   28.6000
39.005   29.0000
39.020   27.4000
39.035   29.0000
39.050   29.6000
39.065   27.0000
39.080   27.2000
39.095   26.2000
39.110   27.0000
39.125   27.6000
39.140   26.4000
39.155   30.0000
39.170   28.4000
39.185   26.2000
39.200   25.6000
39.215   26.2000
39.230   28.2000
39.245   29.0000
39.260   26.6000
39.275   26.2000
39.290   26.6000
39.305   25.0000
39.320   26.4000
39.335   28.0000
39.350   27.2000
39.365   23.8000
39.380   25.0000
39.395   25.8000
39.410   24.4000
39.425   23.0000
39.440   23.6000
39.455   23.4000
39.470   25.4000
39.485   26.0000
39.500   23.4000
39.515   22.6000
39.530   22.6000
39.545   24.8000
39.560   24.8000
39.575   24.4000
39.590   25.2000
39.605   24.8000
39.620   22.4000
39.635   21.6000
39.650   26.6000
39.665   25.8000
39.680   23.2000
39.695   25.6000
39.710   22.6000
39.725   22.8000
39.740   24.0000
39.755   24.8000
39.770   22.2000
39.785   25.2000
39.800   20.6000
39.815   20.0000
39.830   24.0000
39.845   21.4000
39.860   21.8000
39.875   21.8000
39.890   24.0000
39.905   23.0000
39.920   21.2000
39.935   24.4000
39.950   26.0000
39.965   24.0000
39.980   23.6000
39.995   19.0000
40.010   20.2000
40.025   20.8000
40.040   22.0000
40.055   20.6000
40.070   20.8000
40.085   22.4000
40.100   21.8000
40.115   21.2000
40.130   20.6000
40.145   21.2000
40.160   22.6000
40.175   21.6000
40.190   21.0000
40.205   21.2000
40.220   19.4000
40.235   19.4000
40.250   19.8000
40.265   20.6000
40.280   21.8000
40.295   21.8000
40.310   21.2000
40.325   20.6000
40.340   22.4000
40.355   22.8000
40.370   19.0000
40.385   22.6000
40.400   23.0000
40.415   20.4000
40.430   18.8000
40.445   23.0000
40.460   22.2000
40.475   22.6000
40.490   20.4000
40.505   20.4000
40.520   21.0000
40.535   21.0000
40.550   20.6000
40.565   20.6000
40.580   20.6000
40.595   17.8000
40.610   18.0000
40.625   21.8000
40.640   16.6000
40.655   20.0000
40.670   23.0000
40.685   18.8000
40.700   18.8000
40.715   20.2000
40.730   19.6000
40.745   22.0000
40.760   20.4000
40.775   18.8000
40.790   20.6000
40.805   22.8000
40.820   21.2000
40.835   19.2000
40.850   19.8000
40.865   23.8000
40.880   22.2000
40.895   21.4000
40.910   23.0000
40.925   20.0000
40.940   18.2000
40.955   22.2000
40.970   20.0000
40.985   21.0000
41.000   20.8000
41.015   19.2000
41.030   20.2000
41.045   20.4000
41.060   21.4000
41.075   23.6000
41.090   18.6000
41.105   16.6000
41.120   19.2000
41.135   21.0000
41.150   19.8000
41.165   21.2000
41.180   22.0000
41.195   20.8000
41.210   19.2000
41.225   22.8000
41.240   20.8000
41.255   20.0000
41.270   18.8000
41.285   19.8000
41.300   18.4000
41.315   19.8000
41.330   19.4000
41.345   22.4000
41.360   21.8000
41.375   18.6000
41.390   16.0000
41.405   18.4000
41.420   19.8000
41.435   23.4000
41.450   24.2000
41.465   21.8000
41.480   19.8000
41.495   20.4000
41.510   21.8000
41.525   17.2000
41.540   19.0000
41.555   19.4000
41.570   18.6000
41.585   22.2000
41.600   20.2000
41.615   21.2000
41.630   17.6000
41.645   20.0000
41.660   20.0000
41.675   18.6000
41.690   20.2000
41.705   21.2000
41.720   17.6000
41.735   18.8000
41.750   20.4000
41.765   19.0000
41.780   20.4000
41.795   22.2000
41.810   21.6000
41.825   19.4000
41.840   19.4000
41.855   20.2000
41.870   20.0000
41.885   19.6000
41.900   22.0000
41.915   23.0000
41.930   18.8000
41.945   18.2000
41.960   18.0000
41.975   21.2000
41.990   20.4000
42.005   19.0000
42.020   20.4000
42.035   23.0000
42.050   19.4000
42.065   20.8000
42.080   19.4000
42.095   21.8000
42.110   21.4000
42.125   18.8000
42.140   20.0000
42.155   21.6000
42.170   20.4000
42.185   20.6000
42.200   19.6000
42.215   16.4000
42.230   20.0000
42.245   21.6000
42.260   18.4000
42.275   19.0000
42.290   21.6000
42.305   19.4000
42.320   21.2000
42.335   21.6000
42.350   24.4000
42.365   20.2000
42.380   19.4000
42.395   22.2000
42.410   22.6000
42.425   18.6000
42.440   19.8000
42.455   19.8000
42.470   20.8000
42.485   18.0000
42.500   18.6000
42.515   20.8000
42.530   20.2000
42.545   20.2000
42.560   20.6000
42.575   21.2000
42.590   23.0000
42.605   22.6000
42.620   22.2000
42.635   22.2000
42.650   22.2000
42.665   19.0000
42.680   20.6000
42.695   20.0000
42.710   21.6000
42.725   23.2000
42.740   22.2000
42.755   24.2000
42.770   21.6000
42.785   22.8000
42.800   22.0000
42.815   20.6000
42.830   19.2000
42.845   20.6000
42.860   24.2000
42.875   22.8000
42.890   24.4000
42.905   21.0000
42.920   23.6000
42.935   25.6000
42.950   22.4000
42.965   25.4000
42.980   25.6000
42.995   23.8000
43.010   24.2000
43.025   23.2000
43.040   23.0000
43.055   23.0000
43.070   21.0000
43.085   24.8000
43.100   27.0000
43.115   27.0000
43.130   28.2000
43.145   24.8000
43.160   25.4000
43.175   24.0000
43.190   23.2000
43.205   24.2000
43.220   25.4000
43.235   23.2000
43.250   24.8000
43.265   28.4000
43.280   26.0000
43.295   31.0000
43.310   29.0000
43.325   27.6000
43.340   27.2000
43.355   27.0000
43.370   27.2000
43.385   28.6000
43.400   25.6000
43.415   29.4000
43.430   31.0000
43.445   27.6000
43.460   32.0000
43.475   32.2000
43.490   31.0000
43.505   29.2000
43.520   31.8000
43.535   28.4000
43.550   31.4000
43.565   34.0000
43.580   32.0000
43.595   33.2000
43.610   36.2000
43.625   36.0000
43.640   37.0000
43.655   35.2000
43.670   39.6000
43.685   38.2000
43.700   41.6000
43.715   39.0000
43.730   40.8000
43.745   41.4000
43.760   43.0000
43.775   44.2000
43.790   45.4000
43.805   47.8000
43.820   47.6000
43.835   50.6000
43.850   53.4000
43.865   51.6000
43.880   55.4000
43.895   65.4000
43.910   63.6000
43.925   67.0000
43.940   66.8000
43.955   70.8000
43.970   77.2000
43.985   85.0000
44.000   87.0000
44.015   92.8000
44.030  104.2000
44.045  109.8000
44.060  118.6000
44.075  129.4000
44.090  132.2000
44.105  129.2000
44.120  140.6000
44.135  155.0000
44.150  155.2000
44.165  161.0000
44.180  173.2000
44.195  175.0000
44.210  166.2000
44.225  160.8000
44.240  158.2000
44.255  131.6000
44.270  131.2000
44.285  122.4000
44.300  113.4000
44.315  106.2000
44.330  101.0000
44.345   84.4000
44.360   80.4000
44.375   76.2000
44.390   71.2000
44.405   69.2000
44.420   63.4000
44.435   59.0000
44.450   59.0000
44.465   58.6000
44.480   52.6000
44.495   45.4000
44.510   48.0000
44.525   47.4000
44.540   45.0000
44.555   43.2000
44.570   43.8000
44.585   39.8000
44.600   37.8000
44.615   38.2000
44.630   39.0000
44.645   36.8000
44.660   34.6000
44.675   31.6000
44.690   34.8000
44.705   30.0000
44.720   25.2000
44.735   30.0000
44.750   28.8000
44.765   26.6000
44.780   25.8000
44.795   28.0000
44.810   25.2000
44.825   22.6000
44.840   26.4000
44.855   27.2000
44.870   26.6000
44.885   27.0000
44.900   24.8000
44.915   22.2000
44.930   22.6000
44.945   25.2000
44.960   21.6000
44.975   22.4000
44.990   23.0000
45.005   21.2000
45.020   20.2000
45.035   16.8000
45.050   19.4000
45.065   19.4000
45.080   18.6000
45.095   18.0000
45.110   17.6000
45.125   20.8000
45.140   20.2000
45.155   20.2000
45.170   18.8000
45.185   18.8000
45.200   19.8000
45.215   21.0000
45.230   19.0000
45.245   17.8000
45.260   16.6000
45.275   18.6000
45.290   19.2000
45.305   17.4000
45.320   18.2000
45.335   19.4000
45.350   20.8000
45.365   17.6000
45.380   16.0000
45.395   17.0000
45.410   17.2000
45.425   16.6000
45.440   15.2000
45.455   16.2000
45.470   20.2000
45.485   17.6000
45.500   16.6000
45.515   16.2000
45.530   18.0000
45.545   15.2000
45.560   19.0000
45.575   17.2000
45.590   17.4000
45.605   15.6000
45.620   16.6000
45.635   15.4000
45.650   18.8000
45.665   16.2000
45.680   17.2000
45.695   17.4000
45.710   16.4000
45.725   18.0000
45.740   15.4000
45.755   15.2000
45.770   17.6000
45.785   17.0000
45.800   16.0000
45.815   16.4000
45.830   16.0000
45.845   15.6000
45.860   16.4000
45.875   15.8000
45.890   14.6000
45.905   15.4000
45.920   13.2000
45.935   14.0000
45.950   13.4000
45.965   15.6000
45.980   13.8000
45.995   12.8000
46.010   13.6000
46.025   13.0000
46.040   15.4000
46.055   17.6000
46.070   15.2000
46.085   14.0000
46.100   15.6000
46.115   15.8000
46.130   14.0000
46.145   13.4000
46.160   15.4000
46.175   14.8000
46.190   13.6000
46.205   16.8000
46.220   15.2000
46.235   15.4000
46.250   15.0000
46.265   15.2000
46.280   16.4000
46.295   17.2000
46.310   15.0000
46.325   13.6000
46.340   17.0000
46.355   15.0000
46.370   15.2000
46.385   15.8000
46.400   17.0000
46.415   16.0000
46.430   14.8000
46.445   15.8000
46.460   14.8000
46.475   15.6000
46.490   15.4000
46.505   15.6000
46.520   15.8000
46.535   13.6000
46.550   14.8000
46.565   14.6000
46.580   16.0000
46.595   14.2000
46.610   15.8000
46.625   13.8000
46.640   14.6000
46.655   12.0000
46.670   16.2000
46.685   13.6000
46.700   14.8000
46.715   14.4000
46.730   14.8000
46.745   12.6000
46.760   16.2000
46.775   17.8000
46.790   12.8000
46.805   13.8000
46.820   14.0000
46.835   15.0000
46.850   15.2000
46.865   13.8000
46.880   13.8000
46.895   15.2000
46.910   15.8000
46.925   13.2000
46.940   11.6000
46.955   12.2000
46.970   14.6000
46.985   14.4000
47.000   15.8000
47.015   15.2000
47.030   16.8000
47.045   12.4000
47.060   12.4000
47.075   13.6000
47.090   12.6000
47.105   11.4000
47.120   11.8000
47.135   12.4000
47.150   17.4000
47.165   13.0000
47.180   14.2000
47.195   14.0000
47.210   12.2000
47.225   15.4000
47.240   14.6000
47.255   12.2000
47.270   13.8000
47.285   12.6000
47.300   15.8000
47.315   15.6000
47.330   13.8000
47.345   11.8000
47.360   13.6000
47.375   14.6000
47.390   12.8000
47.405   15.6000
47.420   13.6000
47.435   14.2000
47.450   13.8000
47.465   12.8000
47.480   12.2000
47.495   14.2000
47.510   12.8000
47.525   13.0000
47.540   12.0000
47.555   12.6000
47.570   15.4000
47.585   15.4000
47.600   14.2000
47.615   13.8000
47.630   12.6000
47.645   12.6000
47.660   12.2000
47.675   12.8000
47.690   13.8000
47.705   11.6000
47.720   12.4000
47.735   11.8000
47.750   11.2000
47.765   14.0000
47.780   11.0000
47.795   12.2000
47.810   11.0000
47.825   14.2000
47.840   11.4000
47.855   11.4000
47.870   12.0000
47.885   14.0000
47.900   14.0000
47.915   12.8000
47.930   13.2000
47.945   15.6000
47.960   16.0000
47.975   13.8000
47.990   13.2000
48.005   13.2000
48.020   13.0000
48.035   12.4000
48.050   13.0000
48.065   13.8000
48.080   13.6000
48.095   11.8000
48.110   12.6000
48.125   14.2000
48.140   12.4000
48.155   11.8000
48.170   12.4000
48.185   13.2000
48.200   15.4000
48.215   15.8000
48.230   15.0000
48.245   13.0000
48.260   14.6000
48.275   13.2000
48.290   14.2000
48.305   13.0000
48.320   12.4000
48.335   13.2000
48.350   12.2000
48.365   13.4000
48.380   10.0000
48.395   10.8000
48.410   11.0000
48.425   13.0000
48.440   11.6000
48.455   11.2000
48.470   11.8000
48.485   16.2000
48.500   14.0000
48.515   12.0000
48.530   11.0000
48.545   12.6000
48.560   14.8000
48.575   13.6000
48.590   12.2000
48.605   10.0000
48.620   13.0000
48.635   12.4000
48.650   10.6000
48.665   12.4000
48.680   12.8000
48.695   12.2000
48.710   12.4000
48.725   12.8000
48.740   12.2000
48.755   11.2000
48.770   13.8000
48.785   11.2000
48.800   11.2000
48.815   12.6000
48.830   12.0000
48.845   12.8000
48.860   11.6000
48.875   11.0000
48.890   11.4000
48.905   12.8000
48.920   15.2000
48.935   14.2000
48.950   12.6000
48.965   13.0000
48.980   14.0000
48.995   15.8000
49.010   14.0000
49.025   10.2000
49.040   11.2000
49.055   11.4000
49.070   11.6000
49.085   12.0000
49.100   12.6000
49.115   13.6000
49.130   12.6000
49.145   13.2000
49.160   10.8000
49.175    9.4000
49.190   11.0000
49.205   10.6000
49.220    9.8000
49.235   11.8000
49.250   13.6000
49.265   13.4000
49.280   11.0000
49.295   13.2000
49.310   14.8000
49.325   14.6000
49.340   13.0000
49.355   13.0000
49.370   11.8000
49.385   11.4000
49.400   13.4000
49.415   11.2000
49.430   10.2000
49.445   12.0000
49.460   11.2000
49.475   10.2000
49.490   10.8000
49.505   10.8000
49.520   10.0000
49.535   12.2000
49.550   12.0000
49.565   10.4000
49.580   13.6000
49.595   12.4000
49.610   14.4000
49.625   12.2000
49.640   11.8000
49.655   14.2000
49.670   11.8000
49.685   12.4000
49.700   11.6000
49.715   14.6000
49.730   12.0000
49.745   16.0000
49.760   14.2000
49.775   10.6000
49.790   12.0000
49.805   11.6000
49.820   12.0000
49.835   12.0000
49.850   10.8000
49.865   11.2000
49.880   10.6000
49.895   12.4000
49.910   12.8000
49.925   11.8000
49.940   13.2000
49.955    9.6000
49.970   10.8000
49.985   12.0000
50.000   11.0000
50.015    9.8000
50.030   11.2000
50.045   13.8000
50.060   10.8000
50.075   12.0000
50.090   11.4000
50.105   12.2000
50.120   11.8000
50.135   10.6000
50.150   10.8000
50.165   11.8000
50.180   12.4000
50.195   11.0000
50.210    9.4000
50.225   11.8000
50.240   11.8000
50.255   12.2000
50.270   10.4000
50.285   10.4000
50.300   13.6000
50.315   13.0000
50.330   11.4000
50.345   12.0000
50.360   14.8000
50.375   12.0000
50.390    9.8000
50.405   13.2000
50.420   10.4000
50.435   10.8000
50.450   10.6000
50.465   12.2000
50.480   11.8000
50.495   11.4000
50.510   10.0000
50.525   12.0000
50.540   14.8000
50.555   14.6000
50.570   13.0000
50.585   10.0000
50.600    8.6000
50.615   11.2000
50.630    9.6000
50.645   12.0000
50.660    9.0000
50.675   13.8000
50.690   14.0000
50.705   13.2000
50.720   11.0000
50.735   10.4000
50.750    9.6000
50.765   11.4000
50.780   14.4000
50.795   11.6000
50.810    9.6000
50.825   10.0000
50.840   12.4000
50.855   10.4000
50.870   11.4000
50.885   13.0000
50.900   13.8000
50.915    9.4000
50.930   12.4000
50.945   10.8000
50.960   11.0000
50.975   11.6000
50.990    9.2000
51.005   11.6000
51.020   10.2000
51.035   11.8000
51.050   10.6000
51.065   13.0000
51.080   11.6000
51.095   10.4000
51.110   10.4000
51.125    9.8000
51.140   10.8000
51.155   12.4000
51.170   12.6000
51.185   12.4000
51.200   12.0000
51.215   10.8000
51.230    9.0000
51.245    9.4000
51.260   10.2000
51.275   10.0000
51.290   12.6000
51.305   11.6000
51.320   10.8000
51.335    9.8000
51.350    8.8000
51.365    9.4000
51.380   11.0000
51.395    9.6000
51.410   10.0000
51.425   11.0000
51.440   10.6000
51.455   10.4000
51.470   11.8000
51.485   10.8000
51.500    8.8000
51.515   11.4000
51.530   11.6000
51.545   10.6000
51.560   11.0000
51.575    9.2000
51.590    9.0000
51.605   11.0000
51.620   10.6000
51.635   11.0000
51.650   11.2000
51.665   11.4000
51.680   10.6000
51.695   11.2000
51.710   11.6000
51.725   11.2000
51.740   10.0000
51.755   10.6000
51.770   12.8000
51.785   11.2000
51.800   10.6000
51.815   10.2000
51.830    7.8000
51.845    9.6000
51.860    9.4000
51.875   11.2000
51.890   11.0000
51.905   12.6000
51.920   12.0000
51.935   14.6000
51.950   10.6000
51.965   10.2000
51.980   10.4000
51.995   11.4000
52.010   10.8000
52.025    9.6000
52.040    8.4000
52.055    9.0000
52.070    9.0000
52.085   10.4000
52.100   10.4000
52.115   10.6000
52.130   10.6000
52.145   10.4000
52.160   10.0000
52.175   12.2000
52.190   10.2000
52.205    9.2000
52.220   11.0000
52.235    8.4000
52.250    9.0000
52.265    8.4000
52.280    9.6000
52.295   10.4000
52.310    9.8000
52.325    9.4000
52.340   11.0000
52.355   10.6000
52.370    9.4000
52.385    9.2000
52.400   12.4000
52.415   11.4000
52.430    7.8000
52.445   10.4000
52.460    9.8000
52.475   11.4000
52.490   12.6000
52.505   10.4000
52.520   10.8000
52.535   11.8000
52.550   11.6000
52.565   10.6000
52.580    8.4000
52.595    9.6000
52.610   10.6000
52.625    9.2000
52.640   10.0000
52.655   12.0000
52.670   10.8000
52.685    8.8000
52.700    9.0000
52.715    8.0000
52.730    8.6000
52.745   11.0000
52.760   11.2000
52.775   10.6000
52.790   12.8000
52.805    9.6000
52.820    8.4000
52.835   10.2000
52.850   10.4000
52.865   11.8000
52.880   11.0000
52.895   10.8000
52.910   11.2000
52.925   11.8000
52.940   12.8000
52.955   12.6000
52.970   11.6000
52.985   10.0000
53.000   12.4000
53.015   11.2000
53.030   11.4000
53.045   12.4000
53.060   11.4000
53.075   10.8000
53.090    8.8000
53.105   10.4000
53.120    9.0000
53.135    8.6000
53.150    9.8000
53.165    9.4000
53.180    9.2000
53.195    9.0000
53.210   10.8000
53.225   10.8000
53.240   11.4000
53.255   11.0000
53.270    9.2000
53.285    9.8000
53.300   13.4000
53.315    8.8000
53.330    8.0000
53.345   10.4000
53.360    9.8000
53.375   10.6000
53.390   10.8000
53.405   10.0000
53.420   11.4000
53.435   11.8000
53.450   12.6000
53.465   10.0000
53.480   11.4000
53.495   10.8000
53.510   10.2000
53.525    8.8000
53.540   10.6000
53.555   11.2000
53.570   12.0000
53.585   10.4000
53.600   12.0000
53.615   12.8000
53.630   12.4000
53.645    9.2000
53.660   10.6000
53.675    7.8000
53.690    8.0000
53.705   10.6000
53.720   10.2000
53.735    9.6000
53.750   11.0000
53.765    9.4000
53.780    9.6000
53.795   11.0000
53.810   11.6000
53.825    9.8000
53.840    8.8000
53.855    9.4000
53.870   11.2000
53.885   10.8000
53.900   10.2000
53.915    9.8000
53.930   11.8000
53.945    9.8000
53.960   11.4000
53.975   10.0000
53.990    9.6000
54.005   10.0000
54.020    8.4000
54.035    7.8000
54.050    8.8000
54.065    9.4000
54.080   10.2000
54.095    8.6000
54.110    8.6000
54.125    9.8000
54.140    8.4000
54.155    8.8000
54.170   10.4000
54.185    9.6000
54.200    9.2000
54.215   11.4000
54.230   11.0000
54.245    8.6000
54.260   10.6000
54.275    8.2000
54.290    8.4000
54.305   10.8000
54.320   10.4000
54.335   10.6000
54.350    9.6000
54.365    9.4000
54.380   10.2000
54.395    9.8000
54.410   11.6000
54.425    9.8000
54.440    9.4000
54.455   10.0000
54.470    9.2000
54.485    8.8000
54.500    9.6000
54.515    7.8000
54.530    9.8000
54.545   10.6000
54.560    9.2000
54.575    9.6000
54.590   10.8000
54.605    9.8000
54.620    9.4000
54.635    8.4000
54.650   12.0000
54.665   10.2000
54.680    9.6000
54.695   10.2000
54.710   10.8000
54.725    8.8000
54.740   11.4000
54.755   10.4000
54.770   10.4000
54.785    9.6000
54.800   10.8000
54.815   12.0000
54.830    9.6000
54.845    9.4000
54.860    9.0000
54.875    8.8000
54.890    8.0000
54.905   10.2000
54.920    9.4000
54.935   10.0000
54.950   10.2000
54.965    8.2000
54.980    9.4000
54.995   10.0000
55.010    8.6000
55.025    9.0000
55.040    7.2000
55.055    9.0000
55.070    8.8000
55.085    8.4000
55.100    8.6000
55.115    9.0000
55.130    8.8000
55.145    8.8000
55.160    9.8000
55.175    8.4000
55.190    9.4000
55.205    8.0000
55.220    7.6000
55.235    9.0000
55.250   12.0000
55.265   10.2000
55.280   12.4000
55.295    9.6000
55.310    9.8000
55.325    8.6000
55.340    9.4000
55.355    8.2000
55.370    8.8000
55.385    8.2000
55.400    9.0000
55.415   10.4000
55.430   10.8000
55.445    8.8000
55.460    7.2000
55.475    7.8000
55.490    8.8000
55.505    9.0000
55.520    9.4000
55.535    9.4000
55.550    9.4000
55.565    8.8000
55.580    9.4000
55.595   10.2000
55.610    9.8000
55.625    8.6000
55.640    8.8000
55.655    8.2000
55.670    8.8000
55.685   10.4000
55.700    8.8000
55.715    7.0000
55.730   10.0000
55.745    9.6000
55.760    8.0000
55.775    8.8000
55.790    7.4000
55.805    8.4000
55.820    9.4000
55.835    9.2000
55.850    9.6000
55.865    9.0000
55.880    8.6000
55.895    8.6000
55.910    8.6000
55.925   10.8000
55.940   10.6000
55.955   10.4000
55.970    8.2000
55.985    9.4000
56.000   10.4000
56.015    9.8000
56.030    9.0000
56.045   10.0000
56.060    9.2000
56.075    8.6000
56.090    7.4000
56.105    8.8000
56.120   10.6000
56.135   10.2000
56.150    9.6000
56.165   11.4000
56.180   10.2000
56.195   12.4000
56.210   10.2000
56.225    8.8000
56.240    8.8000
56.255    8.8000
56.270    7.8000
56.285    9.6000
56.300   10.2000
56.315    8.4000
56.330   10.4000
56.345   10.8000
56.360    9.8000
56.375    9.4000
56.390    9.8000
56.405    9.4000
56.420    8.2000
56.435    8.8000
56.450    8.4000
56.465    9.8000
56.480    8.2000
56.495    8.4000
56.510   10.0000
56.525    8.4000
56.540    6.8000
56.555   10.8000
56.570    9.2000
56.585    7.6000
56.600    8.4000
56.615   10.6000
56.630    7.2000
56.645    8.2000
56.660    7.8000
56.675   10.8000
56.690    8.2000
56.705    8.2000
56.720    7.4000
56.735    8.0000
56.750    9.2000
56.765    9.2000
56.780    7.6000
56.795   10.6000
56.810    9.0000
56.825    7.0000
56.840    8.4000
56.855    8.8000
56.870    7.6000
56.885    9.0000
56.900    9.0000
56.915    9.6000
56.930    9.4000
56.945    9.6000
56.960    9.0000
56.975    8.6000
56.990    7.6000
57.005    6.2000
57.020    7.2000
57.035    9.4000
57.050   10.2000
57.065    9.6000
57.080   10.0000
57.095    9.6000
57.110   10.0000
57.125    8.2000
57.140    7.6000
57.155    8.8000
57.170    9.8000
57.185    9.2000
57.200    7.6000
57.215    7.8000
57.230   10.2000
57.245    8.0000
57.260    7.8000
57.275   10.4000
57.290   12.6000
57.305    8.8000
57.320    9.8000
57.335    9.4000
57.350   10.6000
57.365   12.6000
57.380   10.8000
57.395   10.6000
57.410    7.6000
57.425    9.6000
57.440    8.6000
57.455    8.2000
57.470    7.0000
57.485    9.2000
57.500    9.2000
57.515   10.0000
57.530   13.0000
57.545   11.0000
57.560    9.4000
57.575   10.0000
57.590    9.0000
57.605    9.8000
57.620   10.0000
57.635   11.8000
57.650   10.4000
57.665    8.6000
57.680    7.8000
57.695    9.8000
57.710    9.0000
57.725    8.8000
57.740    8.4000
57.755    8.8000
57.770   10.4000
57.785    9.6000
57.800   10.6000
57.815    9.2000
57.830   10.0000
57.845    9.8000
57.860   10.0000
57.875    8.8000
57.890    8.0000
57.905    8.2000
57.920    8.6000
57.935    8.6000
57.950    8.0000
57.965    6.8000
57.980    8.0000
57.995    9.6000
58.010    9.8000
58.025    8.4000
58.040    7.8000
58.055   10.0000
58.070    8.8000
58.085    8.8000
58.100    9.6000
58.115   10.0000
58.130    8.8000
58.145    8.0000
58.160    7.4000
58.175   10.2000
58.190    9.2000
58.205    9.8000
58.220    9.2000
58.235    8.6000
58.250    8.0000
58.265    7.4000
58.280    9.2000
58.295   10.6000
58.310   10.8000
58.325    9.6000
58.340    7.4000
58.355    9.2000
58.370    9.2000
58.385    8.2000
58.400    9.6000
58.415    8.4000
58.430   10.4000
58.445    7.8000
58.460    9.6000
58.475    7.6000
58.490    7.2000
58.505    8.4000
58.520    7.2000
58.535   11.4000
58.550    8.6000
58.565    7.6000
58.580    7.0000
58.595    8.2000
58.610    7.6000
58.625    8.0000
58.640    7.8000
58.655    8.0000
58.670    8.6000
58.685   10.2000
58.700    9.2000
58.715    8.6000
58.730   12.0000
58.745    9.8000
58.760    8.8000
58.775   10.2000
58.790    9.2000
58.805   10.6000
58.820    9.0000
58.835   10.0000
58.850    8.2000
58.865    6.6000
58.880    6.2000
58.895    7.6000
58.910    9.2000
58.925    8.2000
58.940    9.6000
58.955    7.8000
58.970    7.4000
58.985   10.6000
59.000    8.2000
59.015    8.4000
59.030    9.6000
59.045    6.6000
59.060    8.0000
59.075   10.4000
59.090   10.2000
59.105    7.8000
59.120    9.0000
59.135   11.0000
59.150    8.8000
59.165    7.0000
59.180    9.2000
59.195    7.8000
59.210    8.8000
59.225    8.6000
59.240    8.2000
59.255    8.2000
59.270    8.2000
59.285    8.6000
59.300    9.4000
59.315    9.6000
59.330   10.6000
59.345    7.2000
59.360    7.0000
59.375    8.8000
59.390    9.0000
59.405    7.0000
59.420    7.6000
59.435    7.8000
59.450    7.6000
59.465    8.6000
59.480    8.8000
59.495    9.0000
59.510    8.2000
59.525    8.4000
59.540   10.0000
59.555    9.2000
59.570    7.0000
59.585    7.6000
59.600    9.2000
59.615    7.2000
59.630    7.6000
59.645    7.2000
59.660    8.6000
59.675    9.0000
59.690   10.4000
59.705    9.4000
59.720    6.6000
59.735   10.6000
59.750    8.2000
59.765    8.0000
59.780    7.2000
59.795    9.2000
59.810    8.8000
59.825    8.8000
59.840    8.8000
59.855    7.6000
59.870    7.8000
59.885    8.0000
59.900    7.6000
59.915    7.4000
59.930    8.6000
59.945    9.8000
59.960    9.4000
59.975    8.2000
59.990    9.8000
60.005   10.4000
60.020    7.4000
60.035    9.4000
60.050    9.4000
60.065    7.4000
60.080    7.4000
60.095    7.0000
60.110    7.6000
60.125    7.8000
60.140    6.6000
60.155    5.8000
60.170    7.6000
60.185    8.0000
60.200    9.0000
60.215    8.4000
60.230    8.0000
60.245    9.4000
60.260    8.4000
60.275    8.6000
60.290    8.8000
60.305    9.0000
60.320    8.6000
60.335    8.6000
60.350    7.6000
60.365   10.2000
60.380    8.4000
60.395    8.2000
60.410    8.4000
60.425    8.2000
60.440    7.8000
60.455    7.8000
60.470    7.2000
60.485    8.4000
60.500    9.2000
60.515    8.4000
60.530   10.8000
60.545    8.4000
60.560    8.8000
60.575    9.4000
60.590    9.2000
60.605    8.0000
60.620    7.6000
60.635    7.8000
60.650    7.2000
60.665    8.4000
60.680    9.8000
60.695    7.8000
60.710    8.4000
60.725    9.4000
60.740    8.6000
60.755    9.6000
60.770    8.4000
60.785    9.2000
60.800    8.8000
60.815    7.8000
60.830    7.4000
60.845    8.4000
60.860    9.6000
60.875    8.0000
60.890   10.8000
60.905    9.2000
60.920    7.0000
60.935    7.2000
60.950    8.6000
60.965    9.0000
60.980    7.8000
60.995    8.8000
61.010    7.2000
61.025    9.0000
61.040    8.6000
61.055    8.2000
61.070    8.4000
61.085    8.8000
61.100    9.0000
61.115    7.8000
61.130    9.2000
61.145    9.6000
61.160    9.2000
61.175    9.8000
61.190    9.4000
61.205    7.2000
61.220   10.0000
61.235   10.6000
61.250    8.4000
61.265    8.4000
61.280    7.2000
61.295    8.0000
61.310    9.4000
61.325    8.8000
61.340    8.4000
61.355    8.4000
61.370    9.4000
61.385    9.0000
61.400    7.8000
61.415    7.4000
61.430    8.4000
61.445    7.8000
61.460    8.6000
61.475    8.4000
61.490    7.6000
61.505    7.0000
61.520    7.4000
61.535    6.6000
61.550    8.2000
61.565    8.0000
61.580    8.8000
61.595    8.8000
61.610    8.6000
61.625   10.0000
61.640    7.6000
61.655    7.4000
61.670    9.2000
61.685   10.2000
61.700    6.0000
61.715    8.6000
61.730    8.8000
61.745    8.6000
61.760    8.0000
61.775    8.2000
61.790    9.2000
61.805    9.2000
61.820   10.2000
61.835    7.6000
61.850    9.8000
61.865    9.2000
61.880    9.2000
61.895    8.4000
61.910   10.4000
61.925    8.8000
61.940    9.0000
61.955    7.8000
61.970    8.8000
61.985    6.8000
62.000    7.8000
62.015   10.2000
62.030    9.0000
62.045    9.2000
62.060    9.0000
62.075   11.0000
62.090    8.2000
62.105   11.0000
62.120   11.4000
62.135    9.4000
62.150    8.0000
62.165    9.2000
62.180    7.4000
62.195    9.8000
62.210    9.4000
62.225    6.4000
62.240    8.0000
62.255    8.4000
62.270    7.6000
62.285    8.6000
62.300    8.6000
62.315    9.8000
62.330    9.4000
62.345    9.0000
62.360    7.8000
62.375    9.0000
62.390   11.4000
62.405   10.6000
62.420    8.4000
62.435    8.6000
62.450    8.2000
62.465    8.0000
62.480    8.2000
62.495    7.8000
62.510    8.8000
62.525    9.2000
62.540    9.4000
62.555    9.0000
62.570   10.4000
62.585    9.0000
62.600   10.0000
62.615   12.2000
62.630    9.4000
62.645   10.0000
62.660   10.0000
62.675   10.0000
62.690   10.0000
62.705   10.4000
62.720   10.0000
62.735   10.0000
62.750   11.4000
62.765    8.4000
62.780   10.2000
62.795    8.0000
62.810    8.4000
62.825    8.6000
62.840   11.6000
62.855    9.2000
62.870   10.0000
62.885   11.4000
62.900    9.4000
62.915   10.6000
62.930   11.2000
62.945   11.4000
62.960    9.2000
62.975   10.4000
62.990    8.4000
63.005   11.2000
63.020    9.4000
63.035    9.4000
63.050   11.2000
63.065   11.6000
63.080   11.6000
63.095    8.8000
63.110    9.4000
63.125   11.2000
63.140    9.2000
63.155    9.6000
63.170   10.8000
63.185    9.6000
63.200   10.4000
63.215   11.6000
63.230   11.0000
63.245    9.8000
63.260    9.0000
63.275   10.2000
63.290   13.0000
63.305   11.8000
63.320    9.6000
63.335    9.6000
63.350   11.4000
63.365   10.8000
63.380   12.6000
63.395   11.0000
63.410   11.6000
63.425    9.8000
63.440    9.4000
63.455   11.8000
63.470   10.8000
63.485   11.0000
63.500   11.8000
63.515   12.2000
63.530   11.0000
63.545   13.2000
63.560   12.0000
63.575   13.2000
63.590   11.4000
63.605   13.0000
63.620   14.2000
63.635   13.4000
63.650   12.2000
63.665   11.8000
63.680   14.0000
63.695   12.6000
63.710   12.8000
63.725   14.8000
63.740   17.6000
63.755   18.0000
63.770   15.0000
63.785   17.6000
63.800   14.2000
63.815   15.4000
63.830   18.0000
63.845   20.2000
63.860   20.8000
63.875   17.8000
63.890   20.8000
63.905   20.4000
63.920   21.0000
63.935   20.0000
63.950   22.8000
63.965   22.4000
63.980   25.8000
63.995   27.8000
64.010   26.2000
64.025   33.2000
64.040   35.2000
64.055   33.2000
64.070   37.8000
64.085   42.0000
64.100   42.0000
64.115   45.4000
64.130   49.0000
64.145   55.6000
64.160   57.4000
64.175   63.8000
64.190   75.4000
64.205   83.6000
64.220   84.8000
64.235   94.2000
64.250  107.4000
64.265  113.8000
64.280  125.0000
64.295  133.8000
64.310  126.0000
64.325  127.2000
64.340  124.8000
64.355  122.8000
64.370  115.2000
64.385  100.2000
64.400  100.4000
64.415   88.8000
64.430   81.2000
64.445   71.0000
64.460   63.2000
64.475   59.0000
64.490   56.6000
64.505   49.6000
64.520   44.2000
64.535   40.0000
64.550   43.8000
64.565   38.8000
64.580   36.4000
64.595   35.4000
64.610   34.0000
64.625   31.6000
64.640   26.6000
64.655   25.0000
64.670   28.4000
64.685   24.6000
64.700   22.2000
64.715   22.0000
64.730   23.8000
64.745   20.4000
64.760   20.4000
64.775   20.4000
64.790   19.8000
64.805   20.4000
64.820   18.2000
64.835   16.8000
64.850   19.0000
64.865   16.6000
64.880   14.8000
64.895   14.4000
64.910   13.0000
64.925   15.6000
64.940   15.6000
64.955   14.2000
64.970   16.0000
64.985   13.0000
65.000   14.0000
65.015   12.2000
65.030   13.4000
65.045   13.4000
65.060   13.4000
65.075   13.0000
65.090   11.4000
65.105   13.8000
65.120   11.0000
65.135   11.6000
65.150   13.2000
65.165   15.6000
65.180   12.6000
65.195   12.0000
65.210   10.8000
65.225   12.4000
65.240   10.4000
65.255   11.4000
65.270   11.0000
65.285    9.4000
65.300    9.0000
65.315   11.0000
65.330   10.0000
65.345   10.8000
65.360   10.8000
65.375   10.6000
65.390   10.2000
65.405    9.8000
65.420    8.6000
65.435   11.2000
65.450   11.4000
65.465   11.8000
65.480   10.0000
65.495    9.6000
65.510   10.2000
65.525    9.2000
65.540   11.4000
65.555   11.0000
65.570   10.0000
65.585    7.2000
65.600    8.8000
65.615    9.6000
65.630   12.8000
65.645   11.2000
65.660   11.0000
65.675   10.2000
65.690   10.6000
65.705   10.0000
65.720   10.6000
65.735   11.2000
65.750   10.2000
65.765    8.6000
65.780    6.8000
65.795    7.0000
65.810    9.0000
65.825    8.8000
65.840   10.0000
65.855   10.0000
65.870    8.4000
65.885    9.4000
65.900    9.6000
65.915    8.8000
65.930   10.8000
65.945    9.2000
65.960   10.2000
65.975    9.6000
65.990   10.0000
66.005    8.8000
66.020    8.6000
66.035    7.6000
66.050    6.2000
66.065    7.4000
66.080    8.6000
66.095    9.2000
66.110    9.6000
66.125    7.6000
66.140    7.2000
66.155   10.2000
66.170    8.2000
66.185    7.6000
66.200    7.6000
66.215    6.6000
66.230    8.4000
66.245    9.4000
66.260   10.2000
66.275    8.4000
66.290    9.4000
66.305    8.8000
66.320    9.2000
66.335    8.4000
66.350    9.6000
66.365    8.4000
66.380    9.4000
66.395    9.4000
66.410   10.0000
66.425    9.2000
66.440    9.0000
66.455    9.4000
66.470    9.6000
66.485    8.2000
66.500    8.0000
66.515    7.4000
66.530    8.6000
66.545    7.4000
66.560    7.4000
66.575    9.6000
66.590    9.8000
66.605    8.2000
66.620    8.4000
66.635    9.6000
66.650    7.6000
66.665    7.4000
66.680    7.2000
66.695    7.0000
66.710    6.8000
66.725    5.2000
66.740    8.0000
66.755    9.2000
66.770    8.4000
66.785    7.6000
66.800    6.6000
66.815    6.8000
66.830    7.4000
66.845    9.4000
66.860    7.8000
66.875    9.8000
66.890   10.0000
66.905    8.0000
66.920    8.6000
66.935   10.0000
66.950    6.4000
66.965    8.6000
66.980    8.0000
66.995    9.2000
67.010   10.2000
67.025    8.6000
67.040    7.8000
67.055    9.0000
67.070    8.6000
67.085    7.0000
67.100    8.4000
67.115    8.8000
67.130    9.0000
67.145   10.0000
67.160    8.6000
67.175    9.4000
67.190    8.4000
67.205    8.2000
67.220    8.4000
67.235    7.4000
67.250    9.6000
67.265    9.2000
67.280    7.0000
67.295    9.0000
67.310    9.2000
67.325    6.6000
67.340    9.4000
67.355    8.4000
67.370    7.4000
67.385    9.8000
67.400    9.2000
67.415    7.8000
67.430   10.4000
67.445    8.2000
67.460    9.0000
67.475    8.4000
67.490    8.2000
67.505    7.6000
67.520    9.6000
67.535    8.2000
67.550    9.4000
67.565    9.6000
67.580    6.8000
67.595    8.2000
67.610    8.2000
67.625    6.8000
67.640    7.4000
67.655    8.0000
67.670    6.4000
67.685    6.2000
67.700    8.4000
67.715    8.0000
67.730    8.6000
67.745    9.2000
67.760    7.8000
67.775    9.2000
67.790    6.6000
67.805    9.4000
67.820    8.2000
67.835    8.0000
67.850    7.2000
67.865    8.0000
67.880    7.4000
67.895    7.6000
67.910    9.2000
67.925    8.2000
67.940    7.8000
67.955    6.2000
67.970    8.6000
67.985    8.8000
68.000    7.6000
68.015    8.8000
68.030   10.0000
68.045    9.4000
68.060   10.6000
68.075   11.2000
68.090    8.6000
68.105   10.2000
68.120    9.8000
68.135    7.8000
68.150    8.6000
68.165    7.4000
68.180    9.2000
68.195    8.0000
68.210    8.2000
68.225    7.6000
68.240    5.6000
68.255    7.4000
68.270    7.6000
68.285    7.6000
68.300    6.8000
68.315    8.0000
68.330    6.6000
68.345    5.8000
68.360    7.4000
68.375    6.2000
68.390    7.4000
68.405    8.4000
68.420    6.8000
68.435    6.8000
68.450    7.8000
68.465    6.4000
68.480    8.6000
68.495    7.2000
68.510    6.4000
68.525    8.6000
68.540    8.4000
68.555    6.2000
68.570    8.0000
68.585    8.2000
68.600    7.6000
68.615    7.8000
68.630    7.2000
68.645    9.0000
68.660    7.8000
68.675    8.2000
68.690    6.4000
68.705    8.0000
68.720    9.8000
68.735    7.2000
68.750    7.4000
68.765    8.6000
68.780    9.4000
68.795    9.2000
68.810    9.0000
68.825    7.8000
68.840    7.4000
68.855    7.2000
68.870    7.6000
68.885    7.2000
68.900    6.8000
68.915    7.4000
68.930    5.4000
68.945    5.4000
68.960    6.4000
68.975    6.8000
68.990    6.6000
69.005    8.0000
69.020    6.2000
69.035    8.2000
69.050    8.0000
69.065    7.0000
69.080    8.6000
69.095    6.4000
69.110    8.0000
69.125    8.8000
69.140    9.2000
69.155    6.0000
69.170    7.2000
69.185    7.8000
69.200    9.8000
69.215    8.6000
69.230    7.0000
69.245    6.2000
69.260    7.0000
69.275    7.6000
69.290    7.0000
69.305    6.4000
69.320    6.2000
69.335    8.2000
69.350    8.4000
69.365    7.8000
69.380    6.2000
69.395    5.6000
69.410    6.4000
69.425    7.8000
69.440    6.8000
69.455    6.8000
69.470    7.0000
69.485    7.8000
69.500    7.0000
69.515    6.8000
69.530    6.0000
69.545    6.8000
69.560    8.2000
69.575    7.6000
69.590    7.4000
69.605    8.8000
69.620    8.4000
69.635    7.4000
69.650    7.0000
69.665    6.6000
69.680    5.8000
69.695    7.8000
69.710    7.0000
69.725    7.4000
69.740    6.6000
69.755    7.0000
69.770    8.4000
69.785    7.0000
69.800    7.6000
69.815    6.0000
69.830    5.0000
69.845    5.8000
69.860    6.2000
69.875    8.0000
69.890    7.2000
69.905    7.0000
69.920    6.0000
69.935    6.6000
69.950    6.6000
69.965    6.4000
69.980    5.6000
69.995    7.4000
70.010    6.8000
70.025    7.2000
70.040    6.4000
70.055    6.6000
70.070    7.8000
70.085    6.6000
70.100    5.4000
70.115    6.2000
70.130    7.8000
70.145    9.0000
70.160    4.8000
70.175    6.2000
70.190    7.8000
70.205    8.6000
70.220    6.8000
70.235    6.2000
70.250    7.8000
70.265    6.4000
70.280    5.8000
70.295    6.8000
70.310    6.8000
70.325    8.6000
70.340    9.2000
70.355    9.0000
70.370    7.0000
70.385    7.8000
70.400    9.2000
70.415    6.8000
70.430    7.6000
70.445    8.6000
70.460    8.2000
70.475    6.8000
70.490    6.0000
70.505    7.2000
70.520    6.6000
70.535    6.8000
70.550    6.4000
70.565    8.2000
70.580    8.0000
70.595   10.0000
70.610    8.0000
70.625    7.6000
70.640    6.8000
70.655   10.2000
70.670    7.6000
70.685    8.0000
70.700    8.6000
70.715    9.4000
70.730    7.8000
70.745    7.2000
70.760    7.8000
70.775    7.2000
70.790    6.6000
70.805    8.0000
70.820    8.0000
70.835   10.6000
70.850    8.0000
70.865    5.2000
70.880    7.0000
70.895    6.4000
70.910    6.2000
70.925    7.6000
70.940    8.4000
70.955    7.8000
70.970    8.0000
70.985    6.0000
71.000   10.2000
71.015   10.2000
71.030    7.8000
71.045    8.4000
71.060    8.2000
71.075    6.2000
71.090    7.2000
71.105    8.2000
71.120    7.0000
71.135    9.6000
71.150    6.6000
71.165    7.4000
71.180    7.4000
71.195    6.8000
71.210    8.2000
71.225    8.4000
71.240    7.6000
71.255    7.6000
71.270    8.0000
71.285    9.6000
71.300    9.6000
71.315    6.2000
71.330    7.4000
71.345    7.8000
71.360    7.2000
71.375    6.6000
71.390    6.4000
71.405    7.6000
71.420    8.8000
71.435    7.2000
71.450    6.4000
71.465    7.6000
71.480    7.4000
71.495    5.8000
71.510    4.8000
71.525    7.2000
71.540    7.8000
71.555    5.8000
71.570    7.2000
71.585    7.8000
71.600    7.4000
71.615    7.0000
71.630    8.4000
71.645    7.8000
71.660    7.0000
71.675    7.6000
71.690    6.2000
71.705    8.2000
71.720    7.6000
71.735    7.8000
71.750    7.6000
71.765    6.4000
71.780    7.6000
71.795    7.4000
71.810    7.6000
71.825    7.6000
71.840    6.4000
71.855    7.4000
71.870    6.6000
71.885    6.4000
71.900    6.8000
71.915    8.0000
71.930    8.8000
71.945    7.0000
71.960    7.6000
71.975    8.2000
71.990    7.8000
72.005    6.8000
72.020    6.8000
72.035    7.4000
72.050    8.4000
72.065    7.2000
72.080    6.0000
72.095    7.0000
72.110    6.6000
72.125    7.2000
72.140    8.8000
72.155    8.8000
72.170    8.4000
72.185    8.8000
72.200    5.6000
72.215    6.2000
72.230    6.8000
72.245    5.0000
72.260    8.0000
72.275    6.0000
72.290    7.2000
72.305    9.0000
72.320    8.6000
72.335    8.0000
72.350   10.2000
72.365    7.6000
72.380    9.0000
72.395    8.8000
72.410    7.0000
72.425    6.4000
72.440    6.4000
72.455    8.6000
72.470    7.2000
72.485    7.2000
72.500    7.0000
72.515    9.0000
72.530    7.0000
72.545    7.0000
72.560    6.6000
72.575    7.4000
72.590    7.2000
72.605    7.0000
72.620    7.0000
72.635    8.6000
72.650   11.0000
72.665   10.4000
72.680   10.2000
72.695    8.4000
72.710    7.2000
72.725    9.6000
72.740    7.2000
72.755    7.8000
72.770    8.0000
72.785    8.4000
72.800    7.4000
72.815    7.6000
72.830    7.0000
72.845    5.6000
72.860    7.0000
72.875    6.0000
72.890    5.2000
72.905    7.8000
72.920    6.8000
72.935    8.6000
72.950    9.6000
72.965    7.8000
72.980    7.4000
72.995    7.2000
73.010    7.2000
73.025    7.8000
73.040    7.0000
73.055    7.2000
73.070    7.4000
73.085    9.6000
73.100    8.0000
73.115    7.2000
73.130    9.2000
73.145    7.2000
73.160    7.8000
73.175    6.6000
73.190    6.0000
73.205    7.4000
73.220    7.6000
73.235    7.0000
73.250    6.6000
73.265    7.2000
73.280    6.4000
73.295    6.8000
73.310    8.4000
73.325    8.4000
73.340    6.0000
73.355    7.4000
73.370    6.8000
73.385    5.0000
73.400    5.2000
73.415    6.8000
73.430    7.6000
73.445    7.4000
73.460    7.2000
73.475    6.4000
73.490    7.6000
73.505    8.0000
73.520    8.8000
73.535    8.8000
73.550    7.8000
73.565    7.4000
73.580    8.2000
73.595    8.2000
73.610    6.4000
73.625    5.8000
73.640    6.4000
73.655    6.8000
73.670    6.8000
73.685    8.0000
73.700    6.6000
73.715    7.6000
73.730    9.8000
73.745   10.0000
73.760    7.4000
73.775    7.4000
73.790    7.6000
73.805    6.2000
73.820    7.4000
73.835    7.6000
73.850    8.0000
73.865    5.4000
73.880    7.2000
73.895    7.8000
73.910    8.6000
73.925    7.8000
73.940    6.6000
73.955    7.8000
73.970    8.8000
73.985    8.0000
74.000    5.2000
74.015    7.0000
74.030    7.2000
74.045    9.4000
74.060    7.2000
74.075    8.6000
74.090    9.0000
74.105    7.6000
74.120    5.8000
74.135    6.2000
74.150    7.8000
74.165    7.8000
74.180    7.4000
74.195    8.4000
74.210    8.8000
74.225    8.2000
74.240    8.4000
74.255    7.2000
74.270    7.6000
74.285    9.6000
74.300    8.4000
74.315    7.2000
74.330    6.6000
74.345    5.6000
74.360    6.0000
74.375    7.0000
74.390    5.4000
74.405    8.0000
74.420    8.6000
74.435    7.6000
74.450    8.6000
74.465    8.8000
74.480    8.6000
74.495    7.8000
74.510    8.2000
74.525    9.4000
74.540    7.6000
74.555    6.8000
74.570    7.6000
74.585    8.0000
74.600    6.8000
74.615    8.6000
74.630   10.8000
74.645    8.0000
74.660    7.6000
74.675    8.4000
74.690    7.0000
74.705    6.6000
74.720    8.2000
74.735    8.2000
74.750    7.6000
74.765    7.0000
74.780    7.4000
74.795    9.0000
74.810    8.0000
74.825    7.0000
74.840    7.0000
74.855    7.4000
74.870    7.6000
74.885    8.4000
74.900    7.0000
74.915    9.0000
74.930    7.4000
74.945    9.4000
74.960    9.4000
74.975    6.8000
74.990    8.6000
75.005    7.6000
75.020    8.8000
75.035    8.0000
75.050    8.8000
75.065    6.2000
75.080    9.6000
75.095    9.8000
75.110    5.8000
75.125    7.4000
75.140    7.4000
75.155    6.8000
75.170    7.6000
75.185    6.6000
75.200    8.6000
75.215    8.0000
75.230    8.0000
75.245    9.0000
75.260    9.0000
75.275   10.2000
75.290    9.2000
75.305    8.2000
75.320    8.2000
75.335    9.6000
75.350    8.8000
75.365    8.0000
75.380    8.0000
75.395   10.4000
75.410    9.2000
75.425    9.2000
75.440    9.4000
75.455    8.6000
75.470    9.2000
75.485    8.0000
75.500    7.2000
75.515    8.2000
75.530    7.8000
75.545    7.8000
75.560    7.4000
75.575    7.8000
75.590    9.4000
75.605   11.2000
75.620   11.8000
75.635   12.4000
75.650    9.6000
75.665   10.2000
75.680    9.4000
75.695    6.8000
75.710    8.8000
75.725    9.2000
75.740    9.6000
75.755    8.4000
75.770   10.0000
75.785    9.0000
75.800    9.6000
75.815   10.4000
75.830    8.2000
75.845   10.2000
75.860   11.0000
75.875   10.4000
75.890   10.4000
75.905   11.8000
75.920   10.4000
75.935   11.0000
75.950    8.2000
75.965    9.2000
75.980   11.2000
75.995   13.4000
76.010   11.6000
76.025   12.8000
76.040   11.2000
76.055   10.0000
76.070   10.6000
76.085   11.2000
76.100   10.4000
76.115    9.6000
76.130    7.2000
76.145   12.2000
76.160    9.8000
76.175   10.4000
76.190   13.0000
76.205   12.0000
76.220   11.8000
76.235   11.4000
76.250   11.0000
76.265    8.6000
76.280   10.0000
76.295   10.6000
76.310   10.8000
76.325    9.2000
76.340   12.0000
76.355   13.0000
76.370   13.8000
76.385   13.0000
76.400   11.8000
76.415   13.6000
76.430   13.8000
76.445   15.0000
76.460   14.8000
76.475   15.0000
76.490   16.6000
76.505   16.8000
76.520   16.6000
76.535   14.8000
76.550   13.0000
76.565   13.8000
76.580   16.6000
76.595   18.8000
76.610   14.0000
76.625   17.6000
76.640   17.2000
76.655   17.0000
76.670   18.2000
76.685   18.8000
76.700   17.4000
76.715   19.8000
76.730   21.6000
76.745   19.4000
76.760   21.0000
76.775   20.2000
76.790   20.2000
76.805   24.6000
76.820   24.2000
76.835   27.6000
76.850   28.6000
76.865   29.0000
76.880   31.2000
76.895   29.8000
76.910   35.6000
76.925   36.2000
76.940   36.8000
76.955   34.8000
76.970   41.8000
76.985   46.4000
77.000   46.0000
77.015   52.8000
77.030   53.4000
77.045   56.4000
77.060   58.8000
77.075   62.8000
77.090   74.4000
77.105   75.2000
77.120   85.4000
77.135   86.6000
77.150   97.0000
77.165  104.4000
77.180  115.6000
77.195  129.6000
77.210  130.0000
77.225  136.4000
77.240  138.0000
77.255  133.0000
77.270  134.6000
77.285  129.2000
77.300  120.8000
77.315  111.2000
77.330  101.2000
77.345   99.6000
77.360   96.0000
77.375   82.4000
77.390   72.8000
77.405   68.6000
77.420   62.6000
77.435   59.4000
77.450   58.0000
77.465   49.8000
77.480   48.0000
77.495   43.6000
77.510   38.6000
77.525   38.2000
77.540   35.6000
77.555   35.0000
77.570   32.8000
77.585   29.6000
77.600   29.6000
77.615   26.0000
77.630   27.2000
77.645   27.6000
77.660   24.8000
77.675   23.2000
77.690   26.0000
77.705   27.2000
77.720   23.6000
77.735   22.4000
77.750   19.8000
77.765   18.2000
77.780   17.2000
77.795   16.8000
77.810   14.8000
77.825   16.0000
77.840   19.6000
77.855   18.4000
77.870   15.2000
77.885   16.0000
77.900   14.4000
77.915   13.8000
77.930   14.0000
77.945   15.8000
77.960   14.2000
77.975   13.4000
77.990   15.2000
78.005   15.2000
78.020   14.2000
78.035   14.0000
78.050   12.8000
78.065   11.4000
78.080   12.0000
78.095   11.6000
78.110   11.6000
78.125   13.8000
78.140   12.6000
78.155    9.4000
78.170   13.4000
78.185   12.4000
78.200   13.0000
78.215   12.4000
78.230    9.2000
78.245   11.0000
78.260   11.2000
78.275    9.6000
78.290   11.0000
78.305   10.4000
78.320    7.8000
78.335   11.0000
78.350   11.8000
78.365   12.6000
78.380    9.6000
78.395   12.0000
78.410   11.6000
78.425    9.4000
78.440   10.4000
78.455   10.4000
78.470    9.4000
78.485   10.0000
78.500   10.6000
78.515   11.0000
78.530    8.4000
78.545    8.2000
78.560    9.0000
78.575    7.6000
78.590   10.8000
78.605   11.6000
78.620   12.6000
78.635    9.0000
78.650    9.2000
78.665    8.2000
78.680    8.6000
78.695   10.0000
78.710   10.2000
78.725   10.8000
78.740    9.4000
78.755   10.0000
78.770   11.4000
78.785   10.0000
78.800    9.8000
78.815   10.0000
78.830   10.6000
78.845   10.4000
78.860   10.6000
78.875    7.8000
78.890    9.0000
78.905   11.2000
78.920    8.6000
78.935    8.8000
78.950    8.6000
78.965    9.2000
78.980    8.6000
78.995    7.2000
79.010    8.0000
79.025    9.0000
79.040    9.0000
79.055    9.8000
79.070   10.4000
79.085    8.6000
79.100    7.2000
79.115    9.0000
79.130   10.0000
79.145    9.2000
79.160    7.8000
79.175    9.0000
79.190    9.0000
79.205    8.6000
79.220    9.0000
79.235    9.0000
79.250   10.2000
79.265    7.6000
79.280    8.2000
79.295    8.0000
79.310    7.2000
79.325    8.4000
79.340    7.8000
79.355    7.6000
79.370    9.0000
79.385    9.2000
79.400    8.4000
79.415    8.2000
79.430    6.2000
79.445    9.0000
79.460    7.8000
79.475    6.4000
79.490    8.2000
79.505    9.2000
79.520    8.4000
79.535    7.2000
79.550    8.2000
79.565    9.2000
79.580    9.6000
79.595    9.6000
79.610   10.2000
79.625   11.2000
79.640   10.6000
79.655    7.8000
79.670   10.0000
79.685    8.2000
79.700   10.0000
79.715    7.6000
79.730    8.8000
79.745    9.2000
79.760   10.2000
79.775    8.2000
79.790    8.6000
79.805    9.4000
79.820   10.8000
79.835   11.2000
79.850   10.4000
79.865    9.2000
79.880    9.6000
79.895   10.2000
79.910    8.0000
79.925    8.8000
79.940    6.6000
79.955    8.0000
79.970   10.2000
79.985    8.2000
80.000    9.8000
80.015    9.2000
80.030    8.6000
80.045    9.4000
80.060    8.6000
80.075    9.8000
80.090    9.6000
80.105    7.6000
80.120    9.0000
80.135   12.2000
80.150   12.0000
80.165   10.4000
80.180    7.6000
80.195    8.0000
80.210    7.8000
80.225    9.4000
80.240   10.2000
80.255   10.6000
80.270   10.6000
80.285    9.8000
80.300    9.2000
80.315    9.2000
80.330    9.2000
80.345    8.6000
80.360    9.8000
80.375    8.0000
80.390    9.2000
80.405   10.2000
80.420   10.8000
80.435    9.6000
80.450    8.2000
80.465    7.2000
80.480   11.0000
80.495   10.8000
80.510    8.8000
80.525   10.4000
80.540    9.6000
80.555    8.0000
80.570    8.0000
80.585    9.6000
80.600   11.0000
80.615    9.2000
80.630    8.6000
80.645    8.8000
80.660   10.4000
80.675    8.8000
80.690    8.4000
80.705    9.6000
80.720   10.6000
80.735   12.2000
80.750   12.2000
80.765   11.2000
80.780    9.6000
80.795   11.8000
80.810   11.4000
80.825   12.8000
80.840   11.8000
80.855   13.0000
80.870   11.4000
80.885   11.2000
80.900   11.6000
80.915   12.0000
80.930   13.4000
80.945   11.2000
80.960   12.2000
80.975   11.4000
80.990   12.6000
81.005   12.8000
81.020   14.8000
81.035   13.8000
81.050   13.4000
81.065   13.4000
81.080   17.4000
81.095   13.2000
81.110   15.0000
81.125   17.0000
81.140   20.8000
81.155   21.0000
81.170   24.0000
81.185   24.6000
81.200   23.2000
81.215   23.8000
81.230   23.4000
81.245   30.0000
81.260   31.0000
81.275   29.4000
81.290   35.6000
81.305   34.2000
81.320   41.4000
81.335   43.4000
81.350   40.6000
81.365   45.8000
81.380   44.0000
81.395   41.2000
81.410   43.4000
81.425   42.0000
81.440   39.8000
81.455   38.2000
81.470   32.8000
81.485   30.4000
81.500   31.4000
81.515   28.2000
81.530   29.8000
81.545   24.0000
81.560   22.2000
81.575   20.6000
81.590   23.0000
81.605   21.0000
81.620   18.8000
81.635   16.8000
81.650   18.4000
81.665   17.6000
81.680   16.0000
81.695   12.2000
81.710   13.4000
81.725   15.2000
81.740   16.0000
81.755   12.6000
81.770   13.4000
81.785   11.8000
81.800   11.6000
81.815   10.8000
81.830   11.8000
81.845   10.2000
81.860   10.4000
81.875   10.8000
81.890   10.8000
81.905   11.4000
81.920   11.0000
81.935   12.0000
81.950   10.4000
81.965   11.2000
81.980   12.0000
81.995    9.8000
82.010    9.0000
82.025   10.8000
82.040    9.8000
82.055    9.0000
82.070    8.0000
82.085    9.0000
82.100    9.0000
82.115    9.8000
82.130    8.0000
82.145    8.4000
82.160    9.0000
82.175   10.8000
82.190    9.6000
82.205   10.2000
82.220    9.6000
82.235    7.2000
82.250    8.2000
82.265    8.8000
82.280    6.8000
82.295    8.6000
82.310    8.4000
82.325    7.0000
82.340    7.4000
82.355    8.0000
82.370    8.0000
82.385    9.4000
82.400    9.0000
82.415    8.4000
82.430    8.6000
82.445    9.2000
82.460    8.2000
82.475    7.6000
82.490    8.4000
82.505    7.6000
82.520    8.4000
82.535   10.2000
82.550    7.2000
82.565    7.4000
82.580    7.4000
82.595    6.2000
82.610    6.8000
82.625    8.6000
82.640    6.8000
82.655    7.0000
82.670    8.8000
82.685    8.0000
82.700    7.0000
82.715    8.2000
82.730    9.4000
82.745    7.6000
82.760    7.8000
82.775    7.2000
82.790    4.8000
82.805    6.4000
82.820    9.4000
82.835    6.6000
82.850    5.8000
82.865    8.6000
82.880    8.8000
82.895    9.2000
82.910    8.4000
82.925    8.8000
82.940    8.6000
82.955    8.2000
82.970    7.4000
82.985    9.4000
83.000    8.6000
83.015    9.0000
83.030    7.8000
83.045    8.2000
83.060    6.4000
83.075    7.2000
83.090    7.0000
83.105    7.2000
83.120    6.8000
83.135    6.4000
83.150    6.8000
83.165    7.6000
83.180    6.2000
83.195    6.8000
83.210    7.4000
83.225    6.8000
83.240    7.2000
83.255    8.8000
83.270    7.0000
83.285    8.6000
83.300    9.2000
83.315    7.8000
83.330    6.4000
83.345    6.4000
83.360    7.2000
83.375    7.2000
83.390    7.0000
83.405    7.8000
83.420    7.8000
83.435    7.6000
83.450    7.6000
83.465    8.0000
83.480    7.8000
83.495    9.4000
83.510    6.8000
83.525    7.2000
83.540    9.2000
83.555    8.4000
83.570    9.2000
83.585    7.0000
83.600    8.0000
83.615    8.0000
83.630    7.8000
83.645    9.2000
83.660    7.2000
83.675    6.4000
83.690    6.8000
83.705    6.2000
83.720    7.2000
83.735    7.6000
83.750    8.2000
83.765    7.2000
83.780    7.2000
83.795    6.4000
83.810    7.2000
83.825    7.6000
83.840    6.2000
83.855    6.6000
83.870    6.0000
83.885    8.4000
83.900    8.6000
83.915    7.6000
83.930    7.6000
83.945    7.4000
83.960    9.8000
83.975    7.2000
83.990    7.4000
84.005    8.2000
84.020    7.4000
84.035    8.4000
84.050    8.2000
84.065    7.4000
84.080    8.0000
84.095    9.4000
84.110    8.2000
84.125    7.6000
84.140    8.0000
84.155    7.6000
84.170    7.8000
84.185    9.0000
84.200    7.2000
84.215    7.6000
84.230    8.8000
84.245    9.6000
84.260    8.6000
84.275    8.0000
84.290    7.0000
84.305    6.8000
84.320    8.0000
84.335    6.8000
84.350    7.8000
84.365    7.0000
84.380    5.4000
84.395    7.0000
84.410    7.4000
84.425    7.4000
84.440    6.4000
84.455    7.0000
84.470    9.2000
84.485    8.0000
84.500    9.4000
84.515    8.6000
84.530    6.4000
84.545    7.8000
84.560    8.2000
84.575    7.6000
84.590    8.2000
84.605    6.2000
84.620    8.2000
84.635    8.4000
84.650    6.2000
84.665    5.6000
84.680    7.0000
84.695    5.8000
84.710    7.2000
84.725    6.6000
84.740    6.6000
84.755    6.4000
84.770    7.4000
84.785    8.2000
84.800    7.2000
84.815    7.0000
84.830    6.4000
84.845    6.0000
84.860    5.8000
84.875    8.8000
84.890    7.2000
84.905    8.4000
84.920    6.2000
84.935    6.2000
84.950    6.2000
84.965    7.0000
84.980    9.0000
84.995    8.0000
85.010    6.6000
85.025    8.2000
85.040    8.2000
85.055    5.4000
85.070    5.6000
85.085    5.6000
85.100    7.8000
85.115    7.8000
85.130    5.8000
85.145    6.8000
85.160    5.6000
85.175    5.2000
85.190    8.8000
85.205    8.4000
85.220    6.8000
85.235    7.4000
85.250    8.6000
85.265    6.2000
85.280    6.2000
85.295    6.0000
85.310    6.8000
85.325    6.6000
85.340    6.2000
85.355    6.0000
85.370    8.0000
85.385    5.4000
85.400    6.8000
85.415    6.0000
85.430    7.0000
85.445    6.2000
85.460    6.0000
85.475    6.2000
85.490    7.4000
85.505    7.8000
85.520    7.2000
85.535    5.6000
85.550    7.2000
85.565    6.4000
85.580    8.4000
85.595    7.4000
85.610    7.6000
85.625    6.8000
85.640    7.6000
85.655    7.0000
85.670    6.4000
85.685    6.8000
85.700    6.4000
85.715    5.4000
85.730    5.0000
85.745    5.6000
85.760    6.6000
85.775    6.6000
85.790    7.8000
85.805    8.2000
85.820    6.6000
85.835    6.0000
85.850    7.2000
85.865    7.6000
85.880    7.2000
85.895    6.2000
85.910    7.0000
85.925    7.0000
85.940    6.2000
85.955    6.8000
85.970    6.8000
85.985    5.6000
86.000    6.8000
86.015    9.0000
86.030    8.4000
86.045    6.2000
86.060    6.2000
86.075    7.0000
86.090    6.2000
86.105    6.4000
86.120    6.4000
86.135    6.0000
86.150    7.0000
86.165    7.2000
86.180    8.0000
86.195    5.8000
86.210    6.6000
86.225    6.8000
86.240    8.6000
86.255    7.0000
86.270    6.6000
86.285    5.6000
86.300    8.4000
86.315    8.4000
86.330    6.2000
86.345    6.6000
86.360    8.0000
86.375    6.6000
86.390    7.0000
86.405    7.8000
86.420    8.0000
86.435    7.4000
86.450    8.4000
86.465    7.4000
86.480    5.8000
86.495    6.2000
86.510    6.4000
86.525    6.6000
86.540    6.4000
86.555    7.2000
86.570    5.4000
86.585    6.2000
86.600    6.6000
86.615    7.6000
86.630    7.2000
86.645    8.8000
86.660    8.4000
86.675    6.2000
86.690    6.0000
86.705    6.8000
86.720    7.2000
86.735    6.2000
86.750    5.8000
86.765    6.0000
86.780    6.2000
86.795    7.8000
86.810    8.6000
86.825    8.4000
86.840    6.8000
86.855    6.0000
86.870    5.6000
86.885    7.2000
86.900    6.2000
86.915    7.4000
86.930    6.2000
86.945    6.2000
86.960    6.2000
86.975    9.2000
86.990    7.8000
87.005    6.4000
87.020    6.2000
87.035    6.4000
87.050    6.0000
87.065    6.8000
87.080    6.8000
87.095    6.4000
87.110    7.2000
87.125    7.0000
87.140    6.2000
87.155    5.0000
87.170    7.6000
87.185    5.6000
87.200    5.4000
87.215    7.0000
87.230    7.4000
87.245    5.6000
87.260    6.4000
87.275    8.0000
87.290    6.6000
87.305    7.6000
87.320    6.4000
87.335    5.6000
87.350    7.8000
87.365    6.6000
87.380    6.0000
87.395    5.0000
87.410    6.8000
87.425    6.0000
87.440    6.6000
87.455    7.2000
87.470    5.2000
87.485    6.4000
87.500    6.6000
87.515    5.8000
87.530    6.2000
87.545    7.8000
87.560    8.8000
87.575    6.8000
87.590    8.6000
87.605    7.6000
87.620    6.8000
87.635    5.6000
87.650    6.6000
87.665    6.2000
87.680    5.4000
87.695    5.2000
87.710    7.4000
87.725    6.2000
87.740    6.0000
87.755    7.0000
87.770    5.0000
87.785    5.2000
87.800    6.2000
87.815    5.2000
87.830    5.6000
87.845    7.4000
87.860    8.4000
87.875    7.2000
87.890    7.4000
87.905    9.0000
87.920    8.8000
87.935    6.8000
87.950    6.8000
87.965    6.0000
87.980    7.6000
87.995    7.6000
88.010    6.6000
88.025    7.4000
88.040    7.4000
88.055    8.0000
88.070    6.4000
88.085    5.6000
88.100    5.6000
88.115    6.6000
88.130    8.4000
88.145    8.2000
88.160    6.0000
88.175    5.6000
88.190    6.2000
88.205    6.6000
88.220    7.6000
88.235    7.6000
88.250    9.4000
88.265    7.8000
88.280    7.2000
88.295    6.8000
88.310    6.0000
88.325    4.6000
88.340    6.4000
88.355    7.0000
88.370    6.2000
88.385    5.6000
88.400    7.6000
88.415    6.6000
88.430    8.2000
88.445    7.4000
88.460    6.4000
88.475    7.0000
88.490    6.6000
88.505    6.8000
88.520    6.4000
88.535    6.0000
88.550    7.4000
88.565    5.4000
88.580    6.2000
88.595    6.2000
88.610    6.0000
88.625    8.4000
88.640    7.2000
88.655    6.6000
88.670    5.4000
88.685    5.6000
88.700    6.8000
88.715    5.4000
88.730    9.2000
88.745    7.8000
88.760    6.2000
88.775    6.2000
88.790    6.8000
88.805    7.4000
88.820    7.4000
88.835    8.2000
88.850    6.6000
88.865    5.6000
88.880    6.4000
88.895    7.2000
88.910    7.0000
88.925    5.8000
88.940    8.6000
88.955    8.6000
88.970    6.8000
88.985    6.8000
89.000    6.6000
89.015    6.0000
89.030    9.0000
89.045    7.4000
89.060    7.8000
89.075    6.6000
89.090    7.2000
89.105    7.4000
89.120    7.2000
89.135    7.6000
89.150    6.8000
89.165    5.2000
89.180    8.0000
89.195    6.0000
89.210    6.2000
89.225    7.2000
89.240    8.0000
89.255    6.0000
89.270    6.6000
89.285    7.2000
89.300    8.0000
89.315    9.4000
89.330    8.6000
89.345    8.8000
89.360    8.6000
89.375    7.0000
89.390    7.2000
89.405    7.6000
89.420    6.6000
89.435    7.0000
89.450    6.2000
89.465    6.4000
89.480    8.2000
89.495    6.8000
89.510    7.0000
89.525    7.2000
89.540    7.8000
89.555    6.4000
89.570    6.6000
89.585    7.8000
89.600    7.6000
89.615    8.6000
89.630    6.8000
89.645    6.2000
89.660    6.0000
89.675    6.8000
89.690    5.6000
89.705    6.6000
89.720    7.2000
89.735    6.0000
89.750    7.2000
89.765    5.4000
89.780    6.0000
89.795    8.6000
89.810    7.6000
89.825    7.6000
89.840    7.4000
89.855    8.4000
89.870    5.8000
89.885    4.2000
89.900    5.8000
89.915    7.2000
89.930    6.4000
89.945    6.4000
89.960    5.4000
89.975    6.2000
89.990    7.2000
90.005    6.0000
90.020    7.2000
90.035    7.8000
90.050    6.8000
90.065    8.8000
90.080    6.2000
90.095    6.6000
90.110    5.4000
90.125    4.6000
90.140    5.4000
90.155    6.0000
90.170    6.0000
90.185    5.6000
90.200    6.6000
90.215    7.0000
90.230    5.8000
90.245    8.4000
90.260    7.6000
90.275    6.2000
90.290    6.4000
90.305    6.0000
90.320    6.8000
90.335    5.8000
90.350    6.8000
90.365    7.0000
90.380    7.8000
90.395    6.8000
90.410    6.8000
90.425    7.0000
90.440    6.6000
90.455    5.6000
90.470    6.8000
90.485    7.0000
90.500    6.8000
90.515    7.8000
90.530    7.6000
90.545    5.6000
90.560    7.2000
90.575    8.4000
90.590    8.4000
90.605    8.8000
90.620    6.8000
90.635    5.8000
90.650    7.4000
90.665    7.0000
90.680    6.6000
90.695    6.6000
90.710    6.2000
90.725    7.4000
90.740    6.4000
90.755    6.2000
90.770    6.6000
90.785    7.2000
90.800    5.0000
90.815    7.2000
90.830    8.4000
90.845    7.0000
90.860    7.4000
90.875    7.6000
90.890    6.2000
90.905    6.4000
90.920    6.8000
90.935    6.6000
90.950    6.8000
90.965    5.0000
90.980    6.0000
90.995    6.0000
91.010    6.4000
91.025    6.0000
91.040    5.6000
91.055    6.4000
91.070    7.2000
91.085    6.0000
91.100    6.4000
91.115    7.2000
91.130    7.4000
91.145    8.2000
91.160    7.2000
91.175    6.4000
91.190    7.2000
91.205    7.4000
91.220    5.6000
91.235    8.0000
91.250    7.8000
91.265    6.8000
91.280    7.6000
91.295    8.2000
91.310    6.8000
91.325    7.8000
91.340    7.6000
91.355    7.8000
91.370    7.6000
91.385    7.0000
91.400    8.0000
91.415    7.4000
91.430    6.4000
91.445    6.2000
91.460    5.6000
91.475    6.2000
91.490    4.6000
91.505    7.6000
91.520    9.8000
91.535    8.2000
91.550    7.8000
91.565    7.4000
91.580    6.2000
91.595    6.4000
91.610    7.4000
91.625    7.4000
91.640    5.2000
91.655    7.2000
91.670    6.2000
91.685    5.6000
91.700    7.0000
91.715    6.8000
91.730    5.4000
91.745    6.8000
91.760    5.8000
91.775    7.0000
91.790    6.2000
91.805    6.6000
91.820    4.0000
91.835    5.6000
91.850    7.8000
91.865    8.6000
91.880    6.8000
91.895    6.0000
91.910    6.2000
91.925    8.0000
91.940    7.8000
91.955   10.4000
91.970    8.2000
91.985    8.8000
92.000    6.4000
92.015    6.6000
92.030    7.0000
92.045    8.4000
92.060    8.0000
92.075    5.4000
92.090    5.6000
92.105    5.4000
92.120    6.8000
92.135    6.8000
92.150    7.0000
92.165    7.6000
92.180    8.0000
92.195    6.2000
92.210    5.8000
92.225    5.6000
92.240    5.6000
92.255    5.8000
92.270    6.2000
92.285    5.8000
92.300    7.2000
92.315    6.2000
92.330    6.8000
92.345    7.0000
92.360    7.0000
92.375    7.6000
92.390    6.2000
92.405    7.0000
92.420    8.6000
92.435    7.0000
92.450    6.0000
92.465    6.8000
92.480    7.8000
92.495    7.0000
92.510    7.2000
92.525    6.8000
92.540    7.4000
92.555    6.2000
92.570    6.2000
92.585    6.2000
92.600    6.4000
92.615    7.0000
92.630    5.8000
92.645    6.2000
92.660    6.2000
92.675    5.8000
92.690    6.2000
92.705    5.6000
92.720    7.0000
92.735    8.2000
92.750    6.2000
92.765    8.6000
92.780    5.6000
92.795    6.6000
92.810    8.2000
92.825    6.8000
92.840    6.4000
92.855    7.4000
92.870    7.0000
92.885    6.6000
92.900    7.6000
92.915    7.2000
92.930    6.0000
92.945    7.0000
92.960    7.8000
92.975    6.6000
92.990    7.0000
93.005    6.8000
93.020    6.6000
93.035    5.6000
93.050    4.4000
93.065    5.0000
93.080    5.4000
93.095    5.8000
93.110    6.4000
93.125    7.6000
93.140    6.6000
93.155    6.6000
93.170    6.6000
93.185    7.0000
93.200    7.2000
93.215    6.2000
93.230    7.4000
93.245    6.6000
93.260    5.2000
93.275    7.8000
93.290    6.2000
93.305    7.6000
93.320    6.0000
93.335    6.8000
93.350    5.8000
93.365    7.6000
93.380    8.4000
93.395    8.8000
93.410    6.4000
93.425    7.0000
93.440    6.4000
93.455    8.8000
93.470    8.2000
93.485    6.0000
93.500    5.4000
93.515    6.6000
93.530    7.2000
93.545    6.2000
93.560    6.2000
93.575    6.4000
93.590    4.0000
93.605    5.0000
93.620    7.0000
93.635    5.6000
93.650    5.4000
93.665    5.8000
93.680    5.4000
93.695    9.0000
93.710    8.2000
93.725   10.4000
93.740    7.0000
93.755    6.6000
93.770    6.0000
93.785    5.8000
93.800    8.8000
93.815    7.2000
93.830    7.2000
93.845    8.4000
93.860    6.4000
93.875    7.4000
93.890    8.0000
93.905    8.2000
93.920    8.0000
93.935    5.8000
93.950    5.0000
93.965    7.4000
93.980    7.4000
93.995    8.2000
94.010    7.8000
94.025    8.4000
94.040    8.0000
94.055    8.4000
94.070    6.6000
94.085    6.8000
94.100    7.4000
94.115    7.0000
94.130    6.8000
94.145    7.4000
94.160    6.6000
94.175    8.2000
94.190    7.4000
94.205    8.0000
94.220    7.2000
94.235    7.6000
94.250    8.2000
94.265    7.0000
94.280    7.8000
94.295    8.2000
94.310    7.2000
94.325    6.8000
94.340    5.6000
94.355    7.2000
94.370    7.0000
94.385    6.4000
94.400    5.8000
94.415    6.4000
94.430    6.2000
94.445    5.8000
94.460    6.8000
94.475    6.2000
94.490    6.4000
94.505    6.8000
94.520    5.6000
94.535    6.2000
94.550    6.2000
94.565    6.0000
94.580    6.0000
94.595    7.2000
94.610    4.8000
94.625    5.6000
94.640    7.4000
94.655    7.0000
94.670    5.8000
94.685    6.6000
94.700    5.8000
94.715    6.0000
94.730    6.4000
94.745    5.4000
94.760    6.4000
94.775    7.6000
94.790    6.4000
94.805    8.0000
94.820    8.2000
94.835    4.8000
94.850    6.8000
94.865    8.2000
94.880    8.6000
94.895    7.8000
94.910    5.6000
94.925    6.8000
94.940    8.0000
94.955    6.6000
94.970    6.0000
94.985    6.6000
95.000    7.0000
95.015    7.2000
95.030    8.2000
95.045    6.4000
95.060    8.6000
95.075    6.4000
95.090    7.0000
95.105    6.8000
95.120    8.2000
95.135    8.2000
95.150    7.4000
95.165    7.2000
95.180    7.4000
95.195    7.4000
95.210    6.4000
95.225    6.6000
95.240    6.6000
95.255    7.0000
95.270    6.6000
95.285    6.0000
95.300    6.2000
95.315    6.0000
95.330    6.6000
95.345    6.6000
95.360    7.2000
95.375    7.4000
95.390    7.6000
95.405    6.4000
95.420    6.4000
95.435    5.4000
95.450    7.6000
95.465    7.2000
95.480    6.8000
95.495    6.8000
95.510    6.8000
95.525    6.8000
95.540    6.8000
95.555    5.0000
95.570    6.0000
95.585    7.0000
95.600    7.8000
95.615    8.4000
95.630    8.2000
95.645    9.0000
95.660    8.4000
95.675    9.4000
95.690    7.2000
95.705    7.0000
95.720    6.6000
95.735    7.6000
95.750    5.6000
95.765    7.0000
95.780    6.8000
95.795    6.6000
95.810    7.6000
95.825    5.2000
95.840    5.6000
95.855    6.0000
95.870    7.0000
95.885    6.6000
95.900    4.6000
95.915    6.8000
95.930    8.0000
95.945    7.0000
95.960    6.4000
95.975    6.0000
95.990    6.8000
96.005    6.8000
96.020    8.4000
96.035    8.4000
96.050    8.4000
96.065    7.6000
96.080    7.2000
96.095    6.4000
96.110    8.0000
96.125    7.6000
96.140    7.2000
96.155    6.4000
96.170    6.8000
96.185    6.8000
96.200    5.0000
96.215    6.4000
96.230    6.6000
96.245    6.8000
96.260    8.6000
96.275    6.8000
96.290    7.2000
96.305    6.4000
96.320    5.8000
96.335    7.0000
96.350    8.4000
96.365    8.0000
96.380    7.8000
96.395    7.8000
96.410    7.4000
96.425    8.0000
96.440    7.8000
96.455    6.6000
96.470    6.2000
96.485    5.6000
96.500    6.2000
96.515    6.4000
96.530    6.4000
96.545    8.4000
96.560    9.2000
96.575    7.2000
96.590    5.6000
96.605    6.6000
96.620    8.6000
96.635    8.6000
96.650    7.2000
96.665    7.6000
96.680    8.4000
96.695    8.6000
96.710    8.0000
96.725    7.2000
96.740    7.0000
96.755    8.4000
96.770    9.0000
96.785   10.0000
96.800    8.2000
96.815    7.0000
96.830    8.4000
96.845    8.2000
96.860    7.0000
96.875    6.2000
96.890   10.0000
96.905    6.6000
96.920    6.6000
96.935    8.2000
96.950    7.4000
96.965   10.0000
96.980    7.6000
96.995   10.4000
97.010    8.8000
97.025    7.8000
97.040    8.8000
97.055    8.0000
97.070    7.8000
97.085    8.8000
97.100    8.2000
97.115    7.4000
97.130   10.6000
97.145    9.8000
97.160    8.8000
97.175    9.8000
97.190    8.8000
97.205    8.8000
97.220    9.8000
97.235    8.2000
97.250    9.8000
97.265    9.4000
97.280    9.6000
97.295   10.8000
97.310    9.6000
97.325    9.8000
97.340   12.4000
97.355   10.8000
97.370    9.0000
97.385   11.0000
97.400   11.2000
97.415    9.8000
97.430   10.2000
97.445    9.6000
97.460   12.6000
97.475   13.6000
97.490   12.4000
97.505   12.4000
97.520   16.8000
97.535   12.6000
97.550   14.6000
97.565   12.6000
97.580   13.0000
97.595   12.6000
97.610   16.4000
97.625   17.4000
97.640   16.8000
97.655   14.8000
97.670   13.8000
97.685   15.8000
97.700   14.4000
97.715   15.8000
97.730   17.4000
97.745   17.6000
97.760   18.6000
97.775   19.6000
97.790   16.4000
97.805   12.6000
97.820   14.2000
97.835   15.0000
97.850   13.0000
97.865   14.2000
97.880   14.6000
97.895   13.0000
97.910   12.6000
97.925   11.4000
97.940   12.0000
97.955   13.2000
97.970   13.2000
97.985   11.8000
98.000   14.8000
98.015   11.2000
98.030   12.0000
98.045   11.2000
98.060   11.4000
98.075   10.2000
98.090   10.4000
98.105    8.6000
98.120    8.4000
98.135    9.8000
98.150    9.6000
98.165    8.6000
98.180    9.8000
98.195   10.8000
98.210    7.8000
98.225    8.8000
98.240   10.2000
98.255    8.6000
98.270    9.2000
98.285    8.8000
98.300    9.4000
98.315   10.2000
98.330    9.4000
98.345    8.8000
98.360    8.2000
98.375    8.2000
98.390    9.6000
98.405    7.8000
98.420    9.6000
98.435    7.8000
98.450    8.2000
98.465    8.4000
98.480    9.6000
98.495    9.6000
98.510    8.4000
98.525    7.6000
98.540    7.0000
98.555    7.4000
98.570    8.6000
98.585    8.2000
98.600    7.8000
98.615    8.6000
98.630    6.8000
98.645    7.4000
98.660    6.2000
98.675    6.8000
98.690    6.4000
98.705    7.0000
98.720    6.0000
98.735    6.8000
98.750    6.6000
98.765    7.2000
98.780    8.4000
98.795    7.6000
98.810    9.8000
98.825    8.4000
98.840    7.4000
98.855    7.2000
98.870    7.2000
98.885    7.8000
98.900    7.6000
98.915    7.0000
98.930    8.2000
98.945    7.8000
98.960    6.8000
98.975    7.2000
98.990    7.6000
99.005    8.0000
99.020    7.4000
99.035    5.6000
99.050    6.6000
99.065    7.8000
99.080    8.2000
99.095    6.6000
99.110    6.8000
99.125    8.8000
99.140    6.8000
99.155    5.0000
99.170    4.4000
99.185    6.6000
99.200    6.4000
99.215    7.2000
99.230    6.8000
99.245    7.6000
99.260    7.8000
99.275    7.2000
99.290    6.2000
99.305    7.4000
99.320    5.8000
99.335    7.6000
99.350    6.6000
99.365    7.4000
99.380    7.2000
99.395    6.2000
99.410    7.4000
99.425    8.8000
99.440    8.6000
99.455    6.6000
99.470    7.2000
99.485    7.8000
99.500    6.6000
99.515    7.0000
99.530    8.4000
99.545    7.8000
99.560    6.2000
99.575    5.2000
99.590    4.2000
99.605    7.2000
99.620    6.4000
99.635    5.6000
99.650    6.0000
99.665    6.2000
99.680    7.4000
99.695    7.0000
99.710    6.8000
99.725    7.2000
99.740    6.4000
99.755    7.8000
99.770    6.0000
99.785    6.8000
99.800    6.0000
99.815    6.6000
99.830    8.8000
99.845    7.8000
99.860    6.8000
99.875    6.6000
99.890    8.2000
99.905    9.2000
99.920    7.2000
99.935    6.4000
99.950    8.0000
99.965    7.8000
99.980    8.2000
99.995    8.0000
100.010    8.0000
100.025    6.8000
100.040    7.0000
100.055    6.4000
100.070    6.0000
100.085    5.2000
